9
-44
21
-34
16
-27
31
-21
30
-18
42
-17
47
-19
40
-22
27
-25
29
-28
13
-30
6
-30
12
-28
29
-26
30
-25
49
-24
40
-24
26
-26
25
-28
28
-31
13
-33
6
-34
10
-32
15
-29
22
-22
61
-12
86
0
88
14
91
32
98
51
102
71
122
92
168
111
200
128
214
141
231
147
215
145
199
136
169
120
147
98
101
72
75
46
59
21
50
-1
33
-17
39
-28
36
-33
30
-34
28
-33
14
-29
14
-26
13
-23
24
-20
35
-19
48
-18
64
-18
57
-18
45
-18
39
-18
16
-18
11
-18
24
-19
25
-19
44
-20
56
-22
47
-22
41
-23
33
-23
34
-22
18
-21
18
-20
23
-18
36
-17
49
-16
56
-16
49
-16
56
-17
48
-18
30
-20
10
-21
-6
-23
5
-23
38
-23
47
-21
64
-18
67
-15
63
-12
50
-8
42
-5
27
-4
33
-3
36
-3
41
-4
47
-6
61
-7
63
-8
67
-8
51
-8
46
-7
27
-6
35
-5
34
-4
46
-4
45
-4
63
-3
68
-3
65
-2
54
-1
54
1
38
3
44
4
44
6
57
7
60
7
77
7
73
7
79
6
68
6
60
7
40
7
34
9
47
11
56
13
70
15
82
17
101
20
102
23
95
25
81
28
53
31
59
34
71
36
90
38
89
38
118
39
120
38
103
38
89
37
76
37
70
37
65
38
77
39
93
41
106
44
115
46
127
48
117
50
97
51
86
51
72
51
88
51
97
51
99
51
100
50
122
50
129
50
114
49
96
48
90
46
68
43
65
40
67
36
88
32
80
29
89
26
98
24
87
22
70
20
66
19
39
16
40
13
41
9
64
5
54
1
64
-3
68
-6
58
-7
48
-7
20
-6
28
-5
25
-3
40
-2
48
-2
53
-4
63
-6
55
-9
43
-12
26
-15
19
-17
12
-18
1
-18
22
-18
28
-18
36
-18
50
-19
48
-20
31
-22
16
-23
10
-24
5
-25
1
-25
16
-24
28
-22
33
-21
28
-20
50
-20
48
-20
21
-21
17
-22
-2
-23
0
-23
19
-23
20
-22
42
-19
52
-17
48
-15
44
-13
37
-12
13
-12
5
-14
4
-16
13
-19
27
-22
46
-23
40
-24
40
-24
32
-22
23
-20
9
-17
14
-14
10
-12
18
-10
31
-10
39
-10
51
-10
53
-11
42
-12
34
-12
11
-11
10
-10
11
-9
30
-9
41
-8
53
-8
50
-8
35
-8
41
-8
27
-8
21
-7
16
-6
16
-5
27
-4
44
-3
51
-3
53
-4
46
-6
37
-8
30
-10
10
-11
1
-11
6
-11
28
-9
39
-7
52
-6
50
-5
53
-4
36
-5
32
-7
2
-8
6
-10
6
-10
17
-10
33
-9
70
-7
60
-5
46
-4
20
-3
16
-3
-1
-4
14
-5
23
-6
24
-7
39
-7
54
-7
58
-6
41
-6
30
-6
26
-7
-6
-8
-8
-10
16
-12
34
-13
28
-14
40
-12
35
-10
43
-7
39
-3
18
-1
2
0
-2
-1
21
-3
39
-7
24
-11
36
-14
48
-15
39
-15
26
-12
2
-9
-2
-5
8
-1
15
1
34
2
42
1
53
-1
45
-4
18
-6
23
-7
20
-7
3
-6
9
-4
8
-2
25
0
35
2
55
3
53
3
55
4
28
4
10
5
-2
5
9
5
33
6
33
5
40
4
46
3
48
1
41
-1
29
-2
21
-2
-1
-1
4
1
1
4
36
7
57
10
61
13
53
15
52
17
40
19
26
19
29
20
14
20
36
19
43
19
58
18
59
16
53
14
38
12
33
10
7
8
7
6
15
5
28
4
25
4
46
3
39
3
40
2
34
2
19
2
-8
1
-1
1
10
1
13
0
22
0
36
0
40
0
38
0
30
1
16
1
-2
2
-2
3
0
4
21
5
23
6
47
6
48
6
38
5
20
4
0
4
-6
4
10
4
20
4
23
5
19
6
42
7
38
7
34
6
21
6
18
5
5
4
-8
4
3
5
12
6
13
8
56
10
54
11
35
11
21
10
4
7
-12
4
-15
2
-4
0
26
0
23
3
45
8
48
16
50
26
58
37
57
51
51
66
80
82
95
99
125
118
158
137
205
156
219
172
214
184
216
189
189
187
158
177
146
159
133
134
115
106
73
76
72
50
48
27
27
12
3
3
4
0
-5
3
-12
8
3
15
32
21
50
26
66
28
69
28
51
27
42
26
4
24
-20
22
6
21
25
21
33
21
20
21
55
21
59
22
49
22
30
23
19
24
6
24
-3
24
15
25
25
25
40
25
45
25
35
25
48
26
40
27
30
28
9
29
14
30
13
31
33
31
51
31
51
31
45
31
46
31
37
32
20
33
6
35
22
36
50
38
38
38
33
39
52
38
54
38
55
37
34
37
20
37
25
39
27
41
28
43
34
46
65
49
71
51
61
52
54
52
43
52
38
51
30
50
29
48
29
47
46
47
55
46
64
47
58
49
62
51
57
54
35
57
40
59
36
62
48
64
68
65
89
65
80
65
73
65
61
65
48
66
37
68
49
71
54
74
77
77
85
81
98
84
95
86
96
87
90
88
70
88
61
88
74
88
69
88
81
89
80
89
99
90
103
91
112
92
89
92
82
92
74
91
60
90
59
88
70
85
75
82
86
78
84
75
74
71
62
67
54
64
37
60
37
57
16
53
35
49
33
44
54
39
48
34
33
29
9
24
-8
21
-14
18
-7
16
-5
14
-5
12
2
10
14
6
14
2
2
-3
-31
-8
-37
-13
-50
-17
-40
-19
-43
-21
-39
-22
-33
-22
-13
-23
-19
-25
-34
-29
-49
-34
-67
-40
-83
-46
-79
-51
-80
-55
-67
-58
-54
-58
-47
-58
-54
-56
-51
-55
-70
-54
-71
-54
-100
-55
-93
-57
-76
-58
-64
-59
-72
-59
-49
-59
-54
-59
-63
-58
-65
-58
-68
-59
-99
-60
-97
-62
-88
-63
-70
-65
-73
-66
-55
-66
-62
-64
-67
-63
-77
-61
-81
-59
-89
-57
-93
-56
-80
-57
-66
-57
-52
-59
-42
-60
-68
-62
-81
-64
-83
-65
-81
-65
-102
-65
-105
-65
-97
-64
-78
-62
-72
-61
-43
-59
-49
-57
-57
-56
-67
-55
-74
-55
-94
-55
-96
-55
-86
-56
-75
-57
-59
-57
-46
-57
-55
-57
-68
-56
-67
-56
-84
-55
-85
-55
-84
-55
-74
-55
-75
-55
-74
-55
-42
-56
-58
-57
-70
-59
-79
-60
-85
-62
-93
-63
-108
-64
-87
-64
-79
-62
-61
-59
-57
-55
-55
-51
-44
-46
-55
-42
-70
-40
-81
-39
-83
-39
-62
-41
-63
-44
-52
-46
-43
-48
-46
-48
-54
-47
-63
-44
-79
-41
-72
-38
-62
-36
-57
-35
-43
-35
-40
-37
-43
-40
-48
-42
-63
-45
-70
-46
-75
-46
-81
-45
-69
-44
-52
-42
-53
-40
-34
-39
-24
-38
-51
-38
-56
-38
-63
-38
-73
-38
-63
-37
-64
-35
-52
-33
-36
-31
-16
-29
-25
-27
-37
-26
-43
-24
-46
-23
-61
-23
-48
-22
-49
-21
-34
-21
-26
-20
-18
-20
-14
-20
-31
-20
-26
-20
-36
-21
-58
-21
-63
-22
-52
-23
-37
-23
-31
-22
-14
-21
-17
-20
-26
-19
-33
-17
-30
-16
-50
-16
-54
-15
-42
-15
-39
-16
-26
-17
2
-19
-11
-20
-29
-21
-41
-21
-38
-21
-60
-21
-51
-21
-42
-20
-35
-21
-24
-21
-6
-23
-14
-24
-48
-26
-48
-28
-45
-29
-60
-29
-56
-28
-56
-26
-34
-24
-32
-22
-5
-20
-17
-19
-26
-19
-34
-20
-51
-22
-57
-24
-55
-25
-53
-26
-34
-26
-21
-24
-13
-22
-6
-19
-7
-16
-26
-13
-27
-12
-47
-11
-66
-12
-45
-14
-28
-16
-10
-18
-8
-20
0
-22
-21
-22
-41
-22
-47
-22
-57
-21
-50
-21
-46
-21
-32
-21
-25
-21
-10
-20
-1
-20
-15
-18
-31
-17
-49
-15
-42
-14
-46
-13
-48
-14
-22
-15
0
-17
3
-18
-2
-19
-38
-18
-45
-14
-26
-8
-26
1
1
14
15
29
36
48
78
69
100
91
133
112
148
131
153
146
136
156
127
158
122
153
125
140
108
121
106
97
85
70
63
43
18
18
-31
-3
-58
-20
-78
-32
-72
-40
-51
-43
-47
-43
-20
-41
-19
-38
-19
-34
-26
-30
-43
-26
-56
-22
-40
-19
-31
-17
-27
-16
-14
-17
-10
-18
-24
-20
-10
-23
-25
-25
-29
-27
-47
-27
-50
-27
-42
-25
-36
-23
-26
-20
-4
-18
4
-16
-7
-15
-11
-15
-10
-16
-30
-16
-49
-17
-48
-18
-33
-19
-8
-19
14
-19
1
-19
-18
-19
-17
-19
-31
-19
-41
-19
-38
-18
-40
-17
-20
-16
-7
-14
20
-13
4
-12
-7
-12
-15
-12
-28
-14
-41
-15
-33
-17
-32
-18
-26
-19
-11
-18
8
-17
9
-15
-5
-13
-18
-12
-12
-11
-31
-11
-27
-12
-27
-13
-6
-14
-21
-14
5
-14
16
-12
13
-10
7
-6
-8
-3
-33
0
-19
2
-4
4
14
5
16
6
22
6
30
8
30
10
16
12
13
15
-7
18
9
20
13
22
20
23
25
24
44
24
48
24
35
24
30
25
34
27
23
30
20
34
22
37
40
40
61
43
80
44
62
45
58
46
61
45
45
45
32
45
39
45
32
46
36
47
50
49
82
51
82
52
77
54
80
54
57
54
28
54
33
52
42
49
49
46
56
43
61
40
78
37
51
35
31
33
34
31
23
30
16
28
6
26
35
23
36
19
37
16
39
12
22
8
17
4
3
1
-10
-2
-12
-4
-6
-6
-7
-8
11
-10
25
-11
13
-12
6
-12
13
-12
-18
-12
-19
-11
-28
-12
-26
-13
4
-14
14
-16
10
-19
5
-21
-6
-22
-14
-22
-18
-21
-11
-19
-22
-17
-16
-16
-7
-15
21
-16
19
-17
-10
-19
3
-21
-3
-21
-27
-21
-16
-20
-10
-17
-5
-14
-4
-12
22
-10
15
-11
16
-13
2
-16
-8
-20
-30
-24
-22
-25
-18
-25
-17
-22
4
-18
20
-13
19
-8
36
-5
24
-4
6
-5
-22
-8
-29
-12
-12
-16
3
-19
5
-20
23
-19
28
-15
26
-11
13
-7
4
-4
-10
-3
-2
-4
-5
-7
19
-10
2
-14
19
-17
27
-18
18
-17
7
-15
7
-12
-9
-10
-4
-8
-8
-8
-1
-8
7
-10
33
-12
22
-13
23
-13
20
-11
23
-8
-3
-6
10
-3
-1
-2
6
-2
12
-3
36
-6
40
-9
20
-11
10
-13
7
-13
-20
-13
-2
-12
3
-10
33
-9
17
-8
28
-9
18
-9
32
-10
18
-10
0
-10
-13
-9
-5
-7
15
-6
24
-4
25
-2
44
-2
43
-2
31
-3
19
-4
4
-5
-1
-6
7
-6
27
-7
19
-8
12
-8
40
-9
32
-10
16
-11
12
-11
2
-12
-6
-11
-10
-11
6
-10
28
-9
35
-8
40
-7
40
-7
33
-7
16
-8
-10
-8
3
-8
2
-8
4
-8
26
-7
34
-7
40
-6
43
-6
35
-7
16
-7
-1
-9
-12
-10
-7
-11
4
-13
25
-14
30
-14
45
-13
56
-12
22
-11
6
-9
14
-7
6
-6
5
-5
9
-5
31
-6
32
-7
46
-8
53
-9
29
-9
22
-8
9
-7
5
-6
24
-3
17
-1
32
1
53
3
54
4
49
5
45
5
34
5
13
5
21
4
21
3
38
2
26
2
49
1
60
0
42
0
32
0
45
0
16
0
7
-1
7
-2
9
-3
19
-5
45
-7
52
-10
39
-12
35
-13
26
-13
6
-13
7
-12
-7
-11
5
-10
34
-10
39
-11
43
-12
38
-13
27
-14
17
-15
-6
-16
1
-15
5
-14
15
-13
27
-11
46
-10
58
-10
39
-10
22
-12
7
-14
-3
-17
0
-20
0
-22
12
-23
29
-23
41
-22
30
-19
29
-16
36
-13
21
-10
-4
-8
10
-7
9
-8
21
-11
32
-13
49
-16
34
-19
19
-20
21
-20
17
-20
-5
-20
6
-19
3
-19
11
-19
18
-19
32
-18
38
-16
41
-11
29
-4
38
7
46
21
63
38
88
56
127
76
138
96
167
115
185
131
210
143
208
150
189
152
176
147
152
136
143
118
137
96
106
72
96
46
73
22
30
1
12
-16
6
-26
8
-32
-10
-32
5
-29
11
-25
24
-20
31
-15
47
-11
48
-9
28
-8
28
-8
17
-8
20
-9
28
-10
25
-11
19
-11
41
-12
42
-13
28
-14
26
-15
25
-14
12
-14
11
-12
31
-11
39
-10
34
-9
50
-8
40
-8
28
-9
19
-9
12
-10
18
-9
20
-9
30
-7
45
-5
54
-3
66
-2
73
-1
37
-1
12
-2
12
-3
28
-5
16
-7
34
-8
33
-8
52
-7
58
-5
62
-2
54
0
35
2
26
2
16
2
20
1
31
0
34
-2
54
-3
62
-3
62
-2
56
0
44
3
26
6
23
8
37
9
46
9
51
8
68
7
63
6
65
6
52
8
41
10
29
14
48
17
48
21
53
23
59
24
80
24
79
23
70
22
63
22
72
23
50
25
51
29
47
33
70
37
81
39
110
40
95
40
88
38
82
37
79
36
58
36
59
37
69
40
78
44
83
47
115
50
116
51
111
51
80
51
67
50
71
50
68
50
79
51
103
53
113
55
115
57
110
57
96
55
87
52
87
48
54
44
67
41
75
39
75
38
88
38
92
38
112
38
85
38
67
35
62
32
41
28
51
24
46
21
57
19
74
18
91
19
76
20
77
21
57
20
37
18
19
14
28
10
36
5
38
1
46
-1
63
-2
60
-1
47
1
36
3
40
5
24
5
24
3
25
0
28
-5
32
-10
36
-16
47
-20
23
-24
11
-26
-7
-27
-9
-27
2
-26
7
-25
16
-24
25
-23
35
-23
41
-23
29
-23
13
-23
3
-24
-10
-24
-13
-24
6
-24
19
-23
23
-22
32
-20
55
-18
37
-16
22
-14
2
-12
13
-10
4
-9
24
-9
29
-9
45
-10
53
-11
45
-12
26
-13
23
-14
9
-14
-1
-15
6
-15
12
-14
25
-13
36
-12
47
-10
50
-9
41
-7
44
-5
40
-5
15
-5
1
-6
8
-8
24
-10
39
-12
49
-14
55
-14
30
-13
28
-10
24
-7
13
-3
18
1
36
5
54
7
66
8
74
8
60
6
44
4
35
2
22
-1
9
-3
13
-5
27
-6
36
-6
59
-6
57
-6
53
-5
37
-4
30
-3
13
-1
13
0
28
0
36
1
51
0
59
0
46
-1
57
-3
35
-4
34
-5
0
-6
8
-7
25
-7
36
-7
30
-6
53
-6
50
-5
45
-5
40
-4
38
-4
18
-4
16
-4
27
-4
26
-4
41
-4
53
-4
52
-5
48
-6
34
-7
27
-7
9
-8
12
-9
7
-9
24
-9
42
-8
59
-8
59
-7
52
-6
25
-5
21
-5
10
-5
8
-7
22
-8
32
-10
25
-12
49
-13
43
-14
36
-13
29
-10
30
-8
11
-4
23
-1
19
1
36
1
53
1
59
-1
63
-4
37
-6
29
-9
19
-10
6
-10
10
-9
18
-8
43
-6
40
-4
57
-3
58
-3
41
-3
31
-4
25
-5
22
-5
25
-5
16
-5
23
-5
41
-5
60
-5
43
-5
33
-6
33
-7
26
-7
12
-6
17
-4
33
-1
53
2
46
6
58
9
60
12
79
13
49
13
41
12
26
10
28
7
30
5
36
3
44
3
58
3
59
3
58
4
35
5
39
5
28
5
17
3
27
1
37
-2
39
-5
40
-7
36
-9
40
-10
23
-11
23
-11
12
-10
5
-10
15
-10
26
-10
35
-11
47
-13
34
-15
30
-16
19
-18
11
-18
8
-18
-5
-18
6
-17
26
-15
36
-14
43
-14
33
-14
36
-14
19
-15
-2
-17
3
-17
6
-18
19
-17
22
-16
27
-15
26
-13
44
-12
31
-11
34
-11
7
-12
6
-13
5
-14
15
-16
11
-17
38
-19
44
-20
35
-22
14
-24
-6
-26
-22
-28
-13
-29
-10
-31
-4
-31
-3
-30
31
-27
37
-21
54
-12
45
0
51
15
46
33
65
53
92
74
119
95
165
114
206
131
218
143
216
150
184
151
176
145
147
133
128
116
113
94
109
70
80
46
64
23
35
3
25
-13
18
-23
7
-28
-6
-28
-10
-25
-12
-20
19
-14
36
-9
55
-5
52
-3
48
-3
32
-5
18
-8
-4
-11
10
-13
4
-14
17
-15
21
-14
44
-13
53
-12
51
-11
24
-10
22
-10
-8
-11
1
-11
14
-12
31
-12
26
-12
43
-12
45
-10
36
-9
20
-7
16
-6
3
-5
17
-4
33
-4
30
-3
32
-2
57
-1
60
0
49
1
32
1
23
0
3
-1
11
-4
25
-6
34
-9
29
-11
42
-11
43
-11
44
-9
26
-6
23
-3
5
-1
14
1
22
1
43
1
44
1
63
0
49
0
46
0
34
1
32
2
20
3
11
5
26
6
49
6
49
7
63
8
59
9
54
12
50
15
58
18
47
21
30
24
37
26
54
27
68
26
91
26
85
25
66
25
62
26
55
28
40
30
36
33
58
35
72
37
87
38
93
39
95
39
91
40
80
42
60
44
63
47
67
50
82
54
96
56
102
58
106
59
112
60
114
60
97
60
68
60
68
61
85
62
84
63
93
64
124
64
115
64
112
62
107
60
75
57
62
54
76
52
69
49
69
47
80
45
90
43
92
40
80
37
70
34
56
31
45
28
28
25
40
23
47
21
57
20
81
18
66
17
60
15
54
13
38
10
12
7
16
4
26
0
29
-3
27
-7
48
-9
37
-11
34
-12
27
-12
23
-12
4
-11
11
-9
13
-9
20
-9
20
-10
47
-12
27
-15
31
-18
28
-21
3
-23
-16
-24
-5
-23
5
-22
10
-20
18
-18
36
-16
34
-15
38
-15
21
-16
8
-17
-7
-18
-3
-19
1
-19
11
-18
18
-17
26
-16
40
-16
33
-15
28
-15
10
-16
3
-17
7
-18
-4
-18
5
-18
30
-18
33
-17
37
-16
38
-15
24
-15
14
-15
-4
-15
4
-16
2
-17
18
-19
7
-20
14
-21
34
-22
39
-22
36
-21
-3
-20
-1
-18
2
-16
12
-14
25
-13
26
-13
33
-14
30
-15
34
-17
19
-19
13
-20
-8
-20
-7
-20
2
-18
28
-17
32
-16
36
-15
34
-16
30
-18
10
-21
-11
-24
-11
-26
-12
-27
0
-27
14
-26
20
-23
41
-20
32
-18
33
-17
10
-18
-1
-20
-20
-23
-21
-27
-14
-30
9
-32
19
-33
31
-32
24
-29
9
-26
9
-23
-7
-21
-2
-20
1
-20
-3
-21
18
-24
18
-26
16
-29
19
-31
24
-32
8
-33
-18
-33
-27
-33
-18
-32
-3
-32
10
-32
22
-31
18
-31
28
-31
18
-30
-12
-30
-28
-30
-17
-31
-13
-31
0
-32
7
-32
27
-33
20
-33
13
-32
12
-32
-8
-31
-14
-31
-21
-30
-17
-30
-6
-30
3
-30
25
-30
18
-30
32
-29
21
-28
-7
-27
-16
-26
-8
-25
0
-25
7
-25
5
-27
34
-29
9
-31
16
-33
12
-34
12
-34
-23
-33
-17
-31
-11
-28
6
-25
18
-22
42
-19
33
-18
29
-17
25
-18
12
-18
-10
-20
-5
-21
-7
-21
10
-22
17
-21
35
-19
34
-17
35
-15
25
-12
21
-9
4
-7
13
-6
19
-5
27
-6
39
-7
50
-8
35
-10
34
-12
20
-14
13
-15
2
-16
1
-16
0
-17
4
-18
14
-19
34
-20
34
-21
18
-23
16
-24
1
-24
-9
-25
3
-25
-9
-25
6
-25
11
-25
27
-25
33
-26
18
-26
-3
-27
0
-28
-4
-28
-4
-28
-6
-29
2
-28
8
-28
22
-27
28
-26
17
-24
11
-22
14
-20
-2
-19
6
-18
8
-18
2
-20
13
-22
19
-25
17
-29
6
-32
3
-34
-9
-35
-20
-35
-16
-33
-1
-30
11
-27
18
-24
26
-22
24
-22
21
-24
7
-26
-3
-29
-29
-32
-27
-34
-9
-35
11
-34
25
-32
21
-29
20
-24
20
-18
27
-11
20
-3
27
8
34
22
64
39
94
58
112
80
163
102
192
123
202
141
197
153
191
157
162
153
148
141
130
122
123
97
128
69
104
40
47
14
21
-8
-13
-23
-21
-33
-26
-36
-13
-34
2
-29
4
-22
42
-15
45
-10
42
-6
35
-5
21
-7
1
-9
-7
-12
4
-15
16
-17
13
-17
38
-17
34
-15
20
-12
33
-9
26
-6
13
-3
13
-1
26
0
27
1
35
0
38
-2
33
-3
43
-5
28
-6
23
-7
-1
-7
23
-6
15
-6
14
-5
36
-4
43
-4
49
-4
34
-4
31
-4
22
-4
11
-3
12
-2
15
-1
51
1
28
2
36
4
74
4
46
4
30
4
33
3
8
2
12
1
18
1
23
1
33
2
54
3
54
5
40
6
42
6
41
7
22
7
22
7
26
7
35
7
51
8
69
9
56
10
50
11
36
12
37
12
24
13
21
14
19
15
46
16
52
19
87
21
72
25
69
28
69
31
52
33
39
34
46
34
55
34
60
33
74
32
77
31
74
32
65
33
64
36
67
39
55
42
58
45
69
47
79
48
90
49
100
48
103
47
84
46
73
46
71
46
49
46
48
48
81
49
83
51
94
53
106
54
111
54
96
54
73
53
65
52
53
51
53
49
59
48
83
47
89
46
95
45
85
43
76
41
61
38
43
34
30
30
29
26
49
22
48
19
50
17
57
15
72
15
58
15
39
15
23
14
3
12
16
10
20
6
42
3
52
0
50
-3
36
-4
23
-4
28
-3
17
-2
4
-2
4
-2
16
-3
23
-5
28
-8
54
-11
27
-14
21
-16
9
-17
-10
-17
-4
-16
6
-14
6
-13
15
-11
20
-10
37
-10
31
-9
22
-9
19
-9
10
-9
4
-9
-5
-9
14
-8
11
-8
33
-8
38
-8
37
-8
23
-8
20
-8
-2
-8
7
-8
11
-7
9
-7
17
-7
47
-7
33
-8
32
-9
22
-10
14
-10
7
-11
0
-11
0
-11
6
-10
26
-10
39
-9
38
-9
36
-8
22
-7
24
-6
-3
-5
2
-4
15
-3
30
-2
35
-2
46
-3
45
-4
21
-5
20
-7
12
-8
3
-9
-1
-8
7
-7
23
-6
31
-4
46
-2
50
-1
46
-1
27
-1
24
-2
-4
-4
-7
-5
15
-5
31
-5
27
-4
53
-3
45
-1
30
1
23
2
22
3
15
2
10
1
12
-1
23
-3
30
-6
45
-8
21
-10
27
-11
10
-12
19
-12
1
-13
-2
-13
4
-13
1
-13
11
-13
37
-13
40
-12
32
-11
22
-9
12
-7
0
-5
8
-3
14
-3
40
-3
29
-3
34
-4
34
-5
34
-6
22
-6
8
-7
4
-7
1
-7
2
-7
10
-8
36
-8
32
-9
37
-10
26
-10
7
-11
11
-12
-2
-12
-7
-13
-2
-13
14
-14
32
-14
28
-15
34
-14
29
-13
21
-11
2
-8
5
-6
4
-4
22
-2
35
-2
25
-3
46
-6
34
-8
17
-11
13
-14
-4
-15
-12
-16
-5
-15
10
-13
29
-11
32
-9
39
-7
43
-6
29
-6
16
-8
-3
-10
-19
-12
-10
-14
13
-16
5
-18
32
-18
47
-17
31
-16
8
-15
3
-14
-1
-13
-16
-14
-20
-15
6
-16
25
-17
38
-18
25
-19
28
-18
16
-17
3
-15
-5
-13
2
-11
-5
-10
11
-10
31
-11
50
-11
28
-12
23
-12
17
-11
17
-10
3
-10
-8
-10
1
-10
1
-11
13
-13
32
-14
31
-15
23
-15
18
-13
4
-11
6
-7
12
-4
15
-1
21
0
26
-1
45
-3
39
-7
17
-11
10
-14
-2
-16
-3
-15
4
-13
7
-10
23
-6
25
-2
43
1
40
3
39
3
26
2
31
1
11
-1
2
-2
13
-3
22
-4
18
-4
42
-5
42
-5
23
-6
25
-7
11
-9
-9
-10
-10
-11
10
-12
19
-12
12
-11
35
-10
35
-9
27
-8
9
-8
11
-8
-4
-9
-2
-9
-2
-10
9
-10
16
-11
38
-11
33
-11
25
-12
16
-13
6
-14
-15
-15
-17
-16
-5
-18
2
-18
10
-18
30
-18
29
-17
23
-15
13
-13
11
-12
-2
-12
0
-12
-8
-14
-1
-16
14
-19
26
-21
33
-23
16
-24
8
-23
-3
-21
-12
-18
-9
-15
3
-13
9
-12
19
-13
37
-15
35
-18
17
-22
-13
-25
-15
-27
-19
-28
-12
-27
1
-23
0
-19
5
-13
35
-6
60
3
57
13
56
25
53
41
68
59
93
80
115
102
152
123
191
142
218
155
212
161
200
160
173
150
137
133
108
111
90
87
83
62
67
39
50
19
34
3
28
-8
12
-15
-5
-19
-14
-20
-7
-19
-19
-17
13
-14
22
-11
40
-9
36
-8
36
-7
16
-8
20
-9
-4
-10
-2
-12
-14
-13
13
-14
26
-14
29
-13
23
-12
37
-11
14
-10
13
-9
-3
-9
-1
-9
7
-8
6
-8
26
-8
31
-6
45
-5
37
-4
31
-3
23
-2
12
-2
-1
-3
3
-4
6
-5
22
-6
54
-6
51
-5
33
-4
18
-3
11
-1
-3
0
10
0
20
-1
32
-3
22
-6
45
-9
26
-11
26
-13
18
-13
-2
-12
-14
-10
9
-7
6
-4
14
-1
49
2
56
4
42
6
40
7
32
8
39
8
29
9
15
9
17
10
35
10
42
10
64
10
49
10
47
10
24
11
48
12
26
15
28
18
31
22
51
26
57
30
80
32
87
34
76
34
71
33
47
31
28
30
34
29
49
30
62
32
58
35
87
40
105
44
91
49
86
53
71
56
64
57
61
58
69
57
79
57
94
56
109
56
116
57
110
58
77
59
63
60
76
61
75
61
86
61
81
60
86
59
107
58
105
58
104
58
88
58
75
57
57
57
61
55
68
53
82
50
90
46
86
43
86
39
71
36
51
34
48
32
43
31
41
30
55
29
53
27
57
25
69
22
69
19
55
16
45
14
25
11
18
9
12
7
22
5
32
4
45
2
43
0
52
-2
33
-4
23
-5
3
-5
1
-5
1
-4
20
-3
31
-2
42
-1
46
-2
41
-2
35
-4
16
-5
3
-7
-10
-8
1
-8
18
-7
31
-6
44
-6
44
-5
37
-5
26
-6
23
-8
-4
-11
-4
-13
-9
-15
19
-16
2
-16
34
-15
48
-13
30
-10
17
-7
26
-5
1
-3
12
-1
13
-1
14
-2
25
-4
46
-6
35
-8
31
-10
23
-12
13
-12
3
-12
2
-11
8
-9
28
-7
21
-6
39
-4
41
-3
36
-2
33
-2
21
-3
5
-4
6
-6
3
-7
22
-9
20
-10
44
-10
36
-9
36
-8
27
-7
18
-5
11
-3
12
-1
17
0
37
1
36
1
39
0
47
0
43
-1
26
-1
30
-1
9
0
7
1
7
1
33
1
39
1
47
0
47
-2
35
-4
27
-5
9
-7
2
-7
15
-6
23
-5
24
-3
32
-2
54
-1
40
-2
39
-3
21
-6
16
-8
-9
-11
7
-12
16
-13
13
-12
23
-11
43
-9
48
-8
34
-7
11
-7
12
-8
11
-10
-3
-12
6
-15
20
-16
17
-17
31
-17
34
-17
25
-17
10
-18
6
-19
-26
-21
-14
-23
-1
-25
19
-27
16
-27
12
-27
25
-26
13
-25
0
-24
8
-23
-3
-23
-22
-24
-15
-26
0
-28
11
-30
13
-32
0
-34
4
-35
4
-36
3
-37
-25
-39
-39
-40
-29
-42
-17
-44
-1
-46
8
-48
1
-49
-13
-49
-22
-48
-35
-48
-33
-47
-39
-47
-33
-48
-26
-50
-8
-52
3
-54
-8
-56
-18
-57
-34
-57
-44
-56
-43
-54
-35
-52
-21
-50
-19
-48
1
-47
4
-48
-4
-49
-14
-51
-32
-53
-57
-55
-53
-56
-36
-55
-20
-53
-9
-50
6
-46
15
-42
11
-38
1
-34
-1
-32
-28
-30
-17
-29
-10
-28
-10
-28
2
-27
25
-26
39
-24
24
-21
6
-18
9
-16
5
-13
-3
-12
-7
-11
17
-11
22
-12
29
-14
34
-15
32
-16
29
-16
23
-14
-8
-12
2
-9
8
-6
27
-3
12
-2
59
-2
60
-3
33
-6
12
-9
8
-12
-15
-15
-2
-16
11
-16
26
-14
20
-13
38
-11
41
-11
31
-12
15
-14
-2
-18
-33
-21
-14
-24
-18
-26
10
-27
21
-26
36
-23
30
-20
23
-17
14
-15
4
-13
-6
-13
0
-14
6
-15
6
-17
16
-18
30
-18
27
-18
15
-17
3
-17
15
-17
-6
-17
-9
-18
-6
-19
10
-19
12
-20
29
-20
36
-19
28
-18
4
-17
7
-16
-8
-15
-10
-16
-1
-17
5
-19
15
-21
29
-23
23
-24
17
-25
-5
-24
4
-24
-4
-23
-11
-22
-4
-22
11
-22
4
-22
27
-22
25
-21
31
-19
9
-16
-11
-10
11
-1
12
10
51
24
84
41
103
60
131
80
156
100
156
120
175
136
180
148
179
153
155
152
157
142
148
126
142
104
139
78
103
50
49
24
13
1
-14
-16
-38
-29
-27
-35
-10
-37
7
-34
23
-29
40
-22
37
-16
10
-11
16
-8
12
-6
15
-6
-4
-7
9
-9
29
-11
26
-12
41
-12
49
-12
28
-10
17
-7
4
-4
-7
-1
16
1
26
2
36
1
44
-1
34
-5
24
-8
30
-11
13
-13
-11
-13
4
-12
6
-10
16
-7
10
-4
48
-3
51
-2
44
-3
22
-5
17
-7
-3
-9
-5
-11
6
-11
20
-10
34
-8
42
-5
51
-2
40
0
20
2
25
3
4
3
15
2
13
1
32
1
37
0
58
0
45
1
35
2
39
4
39
6
12
7
14
9
24
10
38
11
38
11
67
11
64
11
43
10
25
10
30
10
16
10
26
11
23
12
32
15
57
17
88
20
68
22
56
24
44
26
47
27
36
28
36
29
49
30
59
33
73
35
87
39
82
42
98
45
85
48
68
50
48
52
61
53
70
53
73
53
77
54
85
54
111
56
111
57
104
58
87
60
66
61
61
62
64
63
78
63
107
63
117
63
111
63
98
62
91
61
87
60
61
59
67
57
77
55
92
53
82
52
80
51
94
50
98
48
76
47
66
46
52
44
61
41
42
39
62
36
68
33
72
30
71
27
69
24
49
21
32
18
20
15
19
13
24
10
36
8
40
7
53
6
56
6
56
6
41
6
18
6
5
6
5
4
7
2
24
-1
32
-4
46
-7
49
-8
32
-9
18
-8
19
-7
-12
-5
-16
-3
14
-1
34
-1
39
-2
47
-4
45
-6
38
-8
4
-9
4
-9
-1
-9
-8
-8
14
-7
24
-6
30
-7
34
-8
44
-10
15
-13
8
-14
2
-14
4
-13
0
-11
13
-8
11
-4
38
-2
60
0
44
0
27
-1
11
-3
-1
-5
-3
-7
12
-7
20
-6
33
-5
31
-3
43
-1
38
-1
39
-2
20
-3
-6
-6
-5
-7
5
-8
19
-8
34
-7
40
-5
51
-3
37
-1
20
0
18
-1
1
-4
-8
-7
-5
-10
1
-13
20
-14
43
-13
43
-10
41
-6
32
-1
23
3
19
5
14
5
4
4
13
1
16
-3
39
-7
34
-10
42
-12
23
-11
11
-9
-3
-6
3
-3
14
0
25
1
38
0
55
-2
35
-6
38
-10
9
-13
-2
-15
-9
-16
1
-16
7
-14
5
-12
12
-10
35
-9
36
-9
33
-9
19
-10
15
-11
-9
-11
-11
-11
6
-11
22
-11
28
-11
38
-11
28
-11
20
-13
14
-14
7
-16
-13
-17
-8
-18
3
-18
15
-17
10
-16
38
-15
26
-14
9
-13
4
-13
15
-14
-6
-14
-4
-14
3
-14
9
-12
15
-10
39
-8
32
-6
29
-5
22
-5
9
-5
-1
-7
-4
-9
6
-11
6
-12
15
-13
31
-12
36
-11
36
-9
29
-7
23
-6
3
-5
-5
-4
-1
-5
6
-6
30
-8
42
-9
32
-10
28
-11
6
-11
8
-11
-1
-10
1
-8
7
-7
20
-6
28
-6
37
-6
46
-6
29
-7
15
-9
10
-10
-17
-11
-7
-13
-3
-13
5
-14
15
-13
33
-12
28
-11
41
-9
22
-6
11
-3
11
-1
-1
1
17
2
35
2
36
1
42
-1
33
-4
14
-7
19
-10
-7
-12
-5
-12
6
-12
10
-11
14
-10
29
-9
36
-8
32
-8
16
-10
4
-13
-16
-16
-10
-20
-16
-23
-2
-25
-6
-27
19
-27
30
-26
26
-24
3
-22
-4
-21
-27
-20
-10
-19
2
-19
2
-20
7
-20
8
-21
21
-21
18
-21
5
-21
0
-21
-7
-21
-16
-21
-9
-22
2
-22
14
-23
28
-23
16
-23
13
-23
8
-23
-9
-22
-28
-21
-8
-21
-9
-21
-9
-21
10
-22
27
-22
36
-23
13
-24
4
-24
-6
-25
-11
-25
-14
-25
-26
-25
-7
-26
-5
-26
30
-27
20
-28
4
-27
-3
-26
-8
-22
-21
-16
1
-8
25
2
49
16
58
32
80
49
104
68
128
87
145
106
159
123
156
136
159
144
160
147
167
143
163
132
155
115
130
93
105
69
63
43
31
19
-3
-1
-21
-17
-23
-27
-22
-32
-3
-32
26
-30
14
-25
19
-20
5
-16
10
-13
-7
-11
-7
-11
7
-11
14
-11
24
-12
33
-12
26
-13
13
-14
10
-15
6
-17
-9
-18
-18
-20
-15
-20
-3
-20
16
-19
24
-17
25
-15
26
-13
25
-11
10
-10
-9
-10
-10
-12
1
-13
1
-15
19
-16
41
-16
26
-15
17
-14
3
-11
-2
-9
9
-7
2
-6
4
-6
16
-7
26
-8
34
-9
40
-10
34
-10
14
-9
4
-8
-8
-5
1
-3
16
-1
30
0
35
0
48
0
54
-1
41
-1
10
-2
-14
-2
4
-1
11
0
11
2
38
4
49
6
51
7
47
7
38
7
30
6
14
4
-7
2
8
0
20
0
37
0
42
2
52
4
51
8
37
12
43
15
22
19
16
21
38
23
47
24
51
24
66
25
62
26
56
28
70
30
55
32
46
35
47
37
57
39
50
40
58
40
79
40
92
40
89
41
85
43
77
45
45
49
54
52
61
55
68
58
97
59
108
59
101
58
85
57
85
55
71
53
52
51
55
50
69
49
69
49
68
48
95
46
89
44
76
42
70
39
46
36
26
33
36
31
48
28
57
26
58
23
65
19
54
15
32
11
24
7
31
3
3
0
19
-2
4
-3
22
-4
31
-4
33
-4
40
-4
28
-4
25
-5
22
-6
-7
-7
-7
-8
3
-9
7
-10
26
-11
31
-13
36
-15
12
-17
10
-19
-1
-21
-33
-23
-22
-24
-7
-23
7
-21
17
-19
38
-16
41
-13
21
-11
0
-10
5
-11
-26
-12
10
-14
-9
-16
14
-18
15
-20
27
-21
20
-21
9
-20
-1
-20
4
-19
-24
-18
-9
-18
-3
-17
13
-17
20
-17
29
-17
28
-16
28
-16
10
-16
-7
-16
-26
-16
-27
-16
-2
-15
9
-15
25
-14
48
-13
42
-12
28
-12
11
-12
-3
-13
-21
-14
-29
-15
-7
-16
25
-16
24
-15
41
-13
44
-10
44
-7
16
-4
-6
-2
-4
-2
-7
-3
5
-6
20
-9
28
-13
33
-15
21
-16
15
-16
13
-14
12
-10
5
-7
-5
-5
11
-3
11
-4
45
-6
42
-8
20
-12
10
-14
2
-16
-5
-16
3
-14
9
-12
10
-10
19
-8
26
-7
31
-7
32
-7
25
-9
20
-10
-11
-11
1
-13
0
-14
-1
-14
-1
-15
15
-16
22
-17
33
-18
14
-19
2
-19
-6
-18
-15
-16
-20
-14
11
-12
27
-10
35
-9
26
-8
20
-8
27
-9
30
-10
-11
-12
-9
-13
-4
-13
13
-13
26
-13
28
-12
34
-12
33
-11
10
-11
3
-10
-4
-10
-9
-9
11
-9
10
-10
11
-12
35
-14
19
-16
24
-19
6
-20
-3
-21
-3
-21
-16
-19
-11
-17
10
-13
26
-10
44
-7
38
-6
30
-7
12
-8
4
-10
-13
-13
-17
-15
-3
-16
15
-16
17
-15
34
-13
42
-10
38
-8
13
-7
19
-7
-16
-8
-9
-9
7
-11
15
-13
9
-15
27
-16
27
-17
11
-18
17
-17
13
-17
-22
-16
-11
-15
-3
-13
15
-11
36
-9
55
-6
39
-4
27
-3
15
-2
13
-3
-3
-3
0
-5
11
-6
7
-7
33
-7
49
-7
40
-6
25
-4
18
-2
17
1
8
2
-1
4
7
4
32
4
39
4
68
3
53
2
21
2
18
1
21
1
-9
0
15
-1
23
-3
16
-5
18
-9
26
-13
20
-16
17
-19
6
-21
-10
-22
-14
-21
-13
-20
-2
-17
25
-15
24
-13
27
-11
37
-11
19
-12
10
-14
5
-16
-12
-18
-23
-19
-8
-20
7
-20
18
-19
33
-19
22
-19
11
-20
-2
-21
-8
-21
-13
-22
-2
-22
-18
-21
-12
-20
21
-19
40
-17
25
-16
15
-15
17
-15
-10
-16
-6
-16
-18
-17
-2
-17
2
-17
30
-17
29
-17
25
-17
5
-18
4
-20
-19
-22
-14
-25
-23
-28
-15
-30
0
-31
16
-30
11
-27
14
-22
0
-16
21
-8
22
0
22
11
23
23
58
38
80
55
121
75
135
96
158
117
182
135
191
150
181
157
175
158
148
150
150
135
130
114
131
90
98
64
74
39
44
18
19
1
-10
-12
-17
-20
-15
-24
-17
-26
-7
-26
11
-25
26
-24
38
-22
7
-20
7
-17
-4
-14
-3
-11
10
-8
24
-6
11
-5
40
-5
36
-6
20
-8
22
-9
7
-10
-9
-10
4
-9
12
-8
15
-5
21
-3
42
-1
34
-1
40
-1
20
-2
25
-4
4
-6
-1
-7
2
-8
4
-9
12
-8
35
-7
42
-6
41
-4
21
-4
23
-3
-2
-3
-1
-3
13
-4
29
-4
17
-4
51
-3
39
-2
33
-2
24
-1
14
0
-2
0
16
0
11
0
33
-1
31
-2
38
-2
29
-3
34
-2
24
-2
20
0
14
3
12
6
28
9
33
12
43
14
64
16
65
17
50
16
40
15
20
13
10
12
17
11
26
11
56
13
53
15
61
19
66
23
68
27
52
30
48
32
38
32
26
31
39
29
64
27
72
25
59
24
58
24
69
27
71
30
35
35
42
40
60
45
68
49
78
53
98
55
95
56
102
57
94
57
77
57
62
58
48
58
61
59
88
59
86
60
114
60
108
60
97
59
91
59
87
58
47
57
63
56
69
55
74
54
77
52
103
50
94
48
74
45
71
43
56
40
50
37
45
35
35
32
41
30
48
29
76
27
72
25
56
23
46
20
34
18
20
15
21
12
18
9
18
6
27
3
36
0
48
-3
35
-4
21
-6
16
-6
-2
-6
0
-6
2
-5
18
-5
26
-5
33
-6
34
-8
22
-10
14
-12
9
-15
-21
-16
2
-17
3
-17
12
-16
21
-14
30
-13
32
-12
22
-11
8
-12
7
-13
-8
-15
-7
-16
3
-18
14
-18
-2
-18
19
-17
36
-16
24
-15
5
-14
10
-14
-9
-14
-17
-15
-11
-16
7
-17
13
-17
34
-17
35
-16
14
-15
14
-13
7
-12
-17
-11
6
-11
13
-11
15
-11
17
-12
28
-12
25
-13
21
-13
7
-14
16
-14
-10
-15
-15
-17
-8
-18
7
-20
23
-21
35
-21
32
-20
8
-17
-2
-14
-1
-10
-5
-6
16
-4
37
-2
41
-2
25
-4
27
-6
27
-9
25
-11
10
-13
7
-14
-9
-13
-9
-13
5
-12
17
-12
29
-12
40
-12
32
-13
27
-14
15
-14
-5
-13
-16
-11
-4
-9
-1
-7
12
-6
37
-6
47
-7
42
-10
26
-13
1
-15
-25
-17
-17
-17
-10
-14
11
-11
32
-6
41
-2
42
0
61
0
50
-3
16
-8
-35
-15
-43
-21
-24
-27
-10
-31
-7
-32
32
-30
25
-27
12
-23
14
-20
6
-18
-18
-18
-14
-19
-14
-22
-12
-24
5
-25
24
-25
24
-23
29
-20
14
-16
-11
-13
5
-11
-6
-10
-1
-11
7
-13
8
-16
28
-18
23
-19
13
-18
22
-17
16
-14
-3
-12
-12
-11
-11
-12
-1
-14
7
-18
15
-22
15
-26
11
-29
1
-29
-15
-28
-25
-26
-4
-24
-5
-22
-3
-21
4
-22
17
-24
8
-26
10
-28
4
-29
8
-28
-11
-25
-11
-21
-1
-16
7
-12
20
-10
41
-9
41
-11
18
-15
5
-19
-6
-23
-31
-26
-23
-26
-6
-25
16
-21
16
-16
43
-11
44
-7
28
-4
15
-2
22
-2
4
-4
-6
-7
5
-10
14
-13
16
-15
25
-16
27
-17
15
-18
5
-18
12
-19
-16
-21
-19
-23
-18
-25
-8
-27
7
-28
31
-28
19
-27
7
-25
-17
-22
4
-19
0
-16
2
-14
1
-13
9
-13
20
-14
30
-16
34
-18
24
-19
1
-20
-7
-20
-16
-19
-26
-18
12
-16
29
-15
17
-14
20
-14
34
-14
17
-16
0
-18
8
-20
-20
-23
-27
-25
-17
-27
-5
-29
-1
-29
17
-29
38
-27
15
-24
-1
-21
-8
-17
-9
-13
-15
-11
14
-9
22
-10
26
-12
30
-16
19
-20
6
-25
-22
-28
-21
-29
-17
-28
-10
-24
0
-17
25
-7
48
4
72
18
76
34
87
50
86
68
91
87
111
106
150
125
184
141
193
154
207
162
208
163
195
155
180
140
131
118
107
91
73
61
22
32
14
7
3
-13
15
-26
21
-31
5
-31
9
-25
2
-18
5
-10
12
-4
34
0
20
1
10
0
24
-3
47
-6
43
-9
17
-11
12
-11
-7
-10
0
-9
2
-7
17
-6
32
-6
35
-6
41
-8
27
-10
19
-12
6
-13
-2
-14
-11
-15
-6
-14
16
-12
16
-11
40
-9
43
-8
32
-8
26
-8
16
-8
-8
-8
5
-9
5
-9
2
-8
6
-8
43
-7
40
-7
32
-7
22
-7
17
-8
-5
-9
-1
-10
-2
-11
10
-11
24
-10
49
-8
42
-6
29
-3
20
-1
28
1
3
2
14
3
18
4
33
4
39
4
48
5
45
5
50
5
35
6
12
6
0
6
18
6
23
6
29
6
33
7
50
8
63
10
54
12
30
13
48
15
17
15
16
15
33
15
39
15
43
15
59
16
68
19
71
23
65
27
55
33
39
37
48
40
61
42
60
41
69
39
81
37
77
35
79
34
56
34
55
37
46
41
68
46
70
51
75
55
89
58
107
58
102
57
79
55
70
52
70
50
68
49
68
48
74
48
81
49
72
49
74
49
94
48
83
46
83
44
59
42
45
40
37
39
49
38
70
37
75
36
87
35
79
33
59
30
44
27
28
23
16
20
28
17
34
14
34
11
44
9
62
7
51
4
31
2
19
-1
-6
-4
-20
-6
9
-7
24
-8
25
-8
39
-7
31
-7
48
-7
22
-7
13
-8
3
-10
-5
-11
0
-13
-9
-15
3
-16
32
-16
36
-16
27
-16
5
-15
10
-14
3
-13
-8
-12
-14
-12
13
-11
23
-10
31
-10
33
-11
29
-13
13
-15
1
-18
-16
-21
-34
-24
-30
-27
3
-28
7
-29
25
-28
15
-27
1
-25
8
-23
11
-20
-6
-18
-6
-17
-23
-16
5
-16
27
-16
33
-15
27
-16
18
-16
9
-16
10
-16
-13
-16
-7
-16
-3
-16
5
-15
17
-14
31
-12
31
-10
36
-8
36
-6
18
-5
-9
-5
-14
-6
7
-8
9
-11
17
-14
20
-16
30
-18
18
-18
16
-18
15
-17
-13
-16
-6
-14
-1
-12
7
-12
19
-11
50
-12
30
-13
18
-14
-3
-15
3
-15
-4
-16
-6
-16
3
-16
16
-16
16
-16
26
-15
32
-14
31
-12
9
-11
10
-9
-1
-8
1
-7
10
-7
17
-8
21
-10
34
-12
23
-13
31
-15
6
-15
0
-15
-25
-14
10
-12
16
-10
10
-9
11
-9
33
-9
27
-10
23
-12
14
-13
6
-15
-14
-15
-9
-15
10
-15
12
-13
19
-12
32
-12
26
-12
28
-13
2
-15
-8
-17
-19
-20
-12
-21
1
-22
7
-22
18
-21
27
-19
29
-16
16
-13
22
-11
5
-10
-14
-9
-19
-9
6
-10
18
-11
22
-12
33
-13
44
-13
30
-13
-2
-12
-4
-12
-4
-12
-3
-12
5
-12
19
-13
15
-14
30
-14
40
-13
22
-13
13
-11
-3
-10
-3
-9
-10
-7
11
-6
30
-6
33
-5
39
-4
34
-3
16
-2
26
0
18
2
10
4
11
5
18
4
30
3
40
0
34
-3
38
-6
20
-9
10
-12
-3
-13
-6
-14
0
-13
6
-13
10
-12
17
-11
28
-11
29
-12
23
-12
14
-13
-12
-14
-3
-15
-16
-16
1
-17
3
-18
24
-20
19
-21
14
-23
4
-24
3
-25
-24
-25
-18
-24
-21
-23
-15
-21
7
-18
45
-15
34
-14
35
-13
18
-14
-3
-15
-28
-18
-26
-20
-12
-23
0
-25
5
-26
23
-26
21
-24
18
-22
0
-20
1
-18
-18
-17
-18
-16
1
-17
13
-18
12
-20
13
-22
18
-24
1
-25
2
-25
-9
-25
-24
-24
-14
-22
-15
-20
12
-18
5
-15
37
-10
42
-4
48
6
41
19
50
36
60
56
86
79
119
103
163
126
182
146
215
161
224
170
223
171
185
163
160
148
129
126
110
100
84
71
49
43
32
17
27
-4
4
-19
3
-28
8
-31
-7
-30
-38
-26
-17
-21
-6
-16
13
-12
37
-11
35
-11
29
-13
6
-15
3
-16
-5
-16
-16
-15
2
-13
2
-10
20
-8
27
-6
29
-6
35
-7
22
-9
5
-11
-3
-14
-10
-16
-17
-17
6
-17
-1
-16
17
-15
24
-13
32
-11
22
-9
18
-8
19
-8
-5
-8
-16
-8
3
-8
16
-8
31
-7
41
-7
31
-7
17
-7
16
-8
2
-9
-15
-11
-10
-12
7
-13
3
-13
22
-12
39
-9
52
-6
32
-2
26
1
11
4
5
5
12
6
13
4
25
2
41
0
33
-2
42
-3
24
-3
27
-2
7
1
5
5
3
8
21
11
34
13
60
14
72
14
65
13
35
12
23
12
10
12
8
13
15
15
40
17
67
20
72
22
58
24
58
26
58
27
47
29
31
31
38
33
39
36
52
40
62
44
107
47
95
50
82
51
68
52
64
51
57
50
51
48
59
47
73
47
72
48
94
49
90
52
89
54
87
56
65
58
60
59
67
60
70
61
77
61
101
61
109
61
87
61
95
60
81
60
77
59
57
57
55
55
56
52
69
48
75
45
85
41
74
37
62
33
45
30
40
27
22
24
24
21
38
19
53
17
35
15
63
13
45
11
39
9
14
7
20
5
3
2
9
0
8
-2
22
-4
24
-6
34
-7
26
-8
27
-9
4
-10
3
-11
-19
-13
-11
-14
-4
-15
16
-16
13
-17
24
-18
20
-18
11
-17
-5
-17
-4
-18
-17
-18
-20
-19
-9
-20
8
-21
11
-21
23
-21
21
-21
-2
-19
7
-18
-16
-17
-26
-16
-12
-16
3
-17
10
-19
9
-21
20
-24
12
-26
3
-27
-9
-28
-21
-28
-28
-27
-30
-26
-12
-24
4
-22
12
-20
29
-18
30
-15
13
-13
12
-11
5
-10
-19
-10
-5
-10
-3
-11
1
-13
16
-14
36
-15
32
-15
15
-15
-15
-13
-6
-11
-2
-8
-1
-6
6
-4
18
-4
21
-5
33
-6
24
-9
16
-11
11
-13
-3
-14
-9
-14
-16
-13
-5
-12
17
-11
27
-10
19
-10
31
-10
21
-12
3
-13
-21
-15
-17
-17
-8
-17
-12
-17
12
-17
27
-16
31
-15
26
-14
11
-14
-7
-15
-18
-17
-20
-18
-17
-19
-9
-20
8
-20
25
-19
32
-18
24
-16
1
-15
14
-14
-26
-14
-22
-15
-11
-16
-4
-16
9
-17
28
-17
37
-16
20
-15
19
-14
-7
-14
-27
-14
-15
-15
-18
-16
-2
-18
-5
-19
23
-20
25
-19
25
-18
9
-16
5
-15
-13
-14
-9
-14
-27
-16
-8
-18
-4
-21
22
-23
26
-24
14
-24
7
-23
-9
-21
-30
-18
-17
-16
-4
-15
12
-15
9
-16
27
-17
16
-19
27
-21
-4
-21
-15
-21
-33
-21
-18
-20
-6
-18
9
-17
7
-16
21
-15
30
-14
22
-13
10
-12
19
-10
-15
-9
-11
-7
-6
-6
1
-5
7
-5
53
-6
40
-6
30
-8
0
-8
-1
-9
-4
-9
-4
-9
-4
-9
20
-8
17
-8
28
-8
35
-8
28
-8
18
-7
-3
-5
-5
-4
-1
-1
22
1
28
2
15
3
48
3
53
1
36
-1
4
-4
-15
-7
-9
-9
3
-11
-5
-11
-2
-11
26
-11
45
-10
29
-10
23
-10
0
-11
-10
-12
-3
-12
-19
-12
8
-11
9
-10
25
-9
37
-8
34
-8
20
-8
8
-10
-14
-12
-17
-15
-12
-18
1
-20
15
-21
20
-22
7
-21
4
-20
8
-18
11
-16
-6
-15
-15
-13
-13
-13
-1
-12
10
-13
22
-13
23
-14
17
-15
17
-16
-5
-17
-11
-18
-5
-18
-10
-17
-12
-15
1
-13
25
-11
40
-10
36
-10
16
-11
-3
-13
-20
-17
-24
-21
-16
-24
-17
-26
4
-26
14
-24
14
-20
15
-13
20
-4
31
6
32
19
41
33
48
49
93
67
106
87
152
107
165
127
194
144
194
156
192
162
167
160
164
149
140
131
118
107
89
79
92
51
53
24
30
2
-5
-15
-11
-25
-38
-29
-22
-29
-13
-26
8
-21
23
-16
33
-11
32
-8
32
-7
14
-6
7
-6
-11
-7
-17
-9
-11
-10
14
-11
17
-12
34
-13
33
-13
26
-13
15
-12
7
-11
-17
-10
-9
-9
-5
-8
14
-7
16
-7
39
-7
52
-7
24
-8
14
-8
19
-7
-18
-6
-2
-5
6
-4
12
-3
25
-3
49
-3
48
-3
25
-3
15
-3
16
-2
-8
-1
3
0
18
1
32
2
34
2
40
2
36
1
32
0
8
-2
15
-3
-1
-3
1
-3
5
-2
29
-1
41
1
44
2
44
3
30
4
29
5
20
5
-6
5
17
6
24
6
42
7
36
9
50
10
45
11
32
13
34
14
38
16
27
18
25
20
38
22
46
23
42
25
60
26
75
26
63
26
58
26
34
26
30
26
38
27
37
29
56
31
62
35
77
38
83
42
91
44
72
47
56
48
59
49
42
49
64
48
75
48
88
47
88
48
89
48
90
49
73
51
58
53
54
55
65
57
81
59
83
60
97
61
107
61
105
60
91
58
82
56
61
53
42
50
45
47
58
44
66
42
95
41
89
40
88
39
64
38
53
37
33
35
37
33
32
30
56
28
50
25
59
22
62
19
51
16
33
13
14
10
21
8
31
5
5
3
15
1
30
-1
42
-2
42
-2
33
-2
23
-3
18
-3
2
-5
0
-8
-9
-11
6
-15
6
-18
21
-21
19
-24
18
-24
16
-24
4
-24
-22
-22
-18
-21
-15
-20
-1
-19
14
-18
39
-18
23
-17
24
-16
25
-14
17
-13
-8
-12
-15
-12
-3
-12
25
-13
14
-14
22
-15
21
-16
21
-17
6
-17
4
-16
-8
-15
-2
-14
7
-14
16
-13
7
-14
30
-14
26
-15
21
-15
-5
-15
17
-15
1
-14
-11
-13
0
-11
24
-11
20
-10
23
-11
48
-11
14
-12
1
-13
1
-14
6
-14
-3
-13
1
-12
22
-11
21
-10
24
-9
27
-9
37
-9
17
-10
6
-10
-6
-11
-11
-12
4
-13
24
-13
13
-13
30
-13
41
-12
31
-11
16
-10
-1
-10
-6
-9
-4
-10
14
-10
23
-12
9
-13
39
-15
41
-16
14
-16
9
-16
14
-16
-11
-15
-17
-14
-11
-13
9
-13
19
-13
48
-14
48
-14
27
-15
-7
-15
-2
-15
-8
-15
-8
-14
-3
-14
6
-14
35
-15
32
-17
35
-19
13
-21
-6
-24
-11
-26
-10
-28
-23
-30
-11
-30
2
-30
-6
-29
25
-27
36
-24
31
-21
4
-18
-7
-15
2
-13
3
-12
3
-12
16
-13
26
-15
25
-18
26
-21
22
-23
11
-24
-26
-23
-18
-22
-7
-19
18
-17
25
-15
22
-14
21
-14
31
-16
10
-20
5
-23
-17
-26
-7
-28
-5
-29
-10
-27
1
-24
25
-20
43
-15
31
-11
26
-9
16
-7
5
-8
3
-10
-2
-12
1
-15
11
-16
31
-16
29
-15
35
-12
27
-9
29
-5
4
-3
15
-2
4
-3
21
-6
42
-10
29
-15
12
-19
17
-22
15
-24
5
-23
-4
-20
1
-17
2
-13
13
-11
18
-10
52
-10
31
-13
25
-17
6
-21
-9
-24
-33
-26
-7
-27
-10
-26
6
-23
30
-20
52
-17
40
-15
22
-14
-1
-14
-6
-15
-14
-18
0
-20
6
-23
3
-24
15
-25
28
-24
22
-23
8
-22
12
-21
7
-20
-5
-20
-13
-22
-4
-23
3
-26
11
-28
19
-30
24
-31
20
-31
-5
-30
-6
-28
-14
-26
-2
-23
1
-22
14
-21
17
-21
27
-22
30
-24
10
-25
-1
-27
-5
-27
-6
-28
-12
-28
1
-28
-2
-28
15
-29
14
-30
18
-31
10
-32
-8
-31
-11
-29
-5
-25
10
-18
5
-8
32
5
64
21
101
38
104
58
117
78
131
98
158
116
163
130
166
141
170
145
176
142
175
132
165
115
142
93
95
66
69
39
41
12
-5
-11
-32
-28
-30
-40
-12
-46
-8
-46
12
-43
23
-37
27
-30
8
-24
-13
-19
-8
-16
6
-15
19
-16
31
-18
27
-21
24
-23
15
-26
9
-27
1
-28
-16
-28
-3
-27
2
-25
8
-22
19
-20
35
-19
28
-18
31
-18
20
-18
16
-20
-8
-21
-13
-22
-7
-22
10
-21
21
-19
45
-17
43
-15
40
-13
11
-13
21
-13
-5
-14
0
-16
-4
-17
19
-18
34
-18
43
-16
39
-14
42
-12
25
-9
12
-6
0
-4
18
-3
18
-3
27
-4
41
-5
64
-6
44
-7
38
-8
29
-9
15
-10
6
-10
13
-10
6
-10
21
-10
31
-9
44
-8
54
-6
61
-4
32
-2
27
1
26
4
20
7
30
9
42
12
55
14
72
16
81
17
72
18
61
18
44
19
22
19
36
20
32
21
59
23
68
26
87
29
96
32
83
36
91
38
79
40
46
40
48
40
60
38
79
37
82
37
98
37
89
38
78
41
76
44
85
47
78
50
82
52
73
53
86
54
99
54
121
54
98
54
99
54
95
55
102
56
75
56
74
56
79
56
77
54
86
51
103
48
93
46
99
44
86
44
87
44
63
46
66
47
73
49
78
49
87
47
92
43
89
38
76
31
56
24
45
17
28
12
24
9
40
7
27
7
50
8
79
8
67
9
57
8
46
6
38
4
15
1
5
-2
16
-4
37
-5
51
-6
50
-5
47
-5
55
-4
47
-3
20
-4
-7
-4
8
-5
23
-6
32
-6
42
-7
64
-7
56
-6
36
-6
24
-6
10
-6
7
-7
19
-7
28
-8
37
-9
28
-10
40
-11
50
-11
42
-11
17
-10
15
-9
22
-8
4
-7
24
-6
47
-6
43
-5
56
-6
50
-6
30
-7
29
-9
4
-9
8
-10
12
-10
28
-9
29
-7
50
-5
68
-3
61
-1
48
0
29
0
6
0
7
-1
21
-2
51
-3
44
-4
45
-5
63
-6
48
-6
35
-7
16
-8
-8
-8
6
-9
24
-9
36
-8
42
-8
60
-7
44
-5
47
-4
42
-3
24
-1
21
-1
20
0
30
0
38
0
39
0
55
-1
54
-2
52
-4
44
-6
24
-8
6
-10
5
-12
17
-13
31
-13
28
-12
43
-11
51
-8
63
-6
47
-4
24
-2
0
-2
18
-3
22
-5
19
-8
17
-10
61
-12
56
-13
40
-14
31
-13
30
-11
-1
-9
4
-7
28
-5
46
-4
33
-4
64
-5
60
-6
41
-7
32
-8
25
-9
-5
-9
13
-10
22
-10
32
-10
35
-10
44
-10
42
-11
44
-11
34
-11
21
-11
0
-11
10
-10
17
-10
19
-9
36
-9
63
-9
58
-10
43
-10
31
-11
24
-11
3
-10
8
-9
23
-8
31
-7
40
-6
45
-6
65
-6
55
-8
15
-10
18
-13
4
-14
-6
-15
22
-15
24
-14
35
-11
62
-9
56
-7
45
-5
42
-5
20
-5
6
-6
-2
-8
21
-9
38
-9
46
-8
54
-7
62
-5
51
-3
41
-2
25
-1
8
-1
14
-2
20
-3
41
-4
59
-5
63
-6
66
-5
44
-5
34
-3
25
-2
19
0
23
1
37
2
48
2
67
1
65
1
49
0
43
-1
43
-3
20
-4
17
-5
12
-6
28
-8
41
-9
44
-11
38
-13
41
-14
30
-15
34
-16
5
-16
-7
-16
7
-15
32
-14
39
-13
48
-12
47
-12
46
-12
40
-12
24
-13
2
-14
4
-15
6
-16
21
-17
24
-17
53
-17
52
-16
37
-14
26
-13
25
-12
16
-11
14
-10
17
-11
26
-12
30
-13
32
-15
46
-17
37
-19
10
-20
23
-20
10
-20
8
-20
20
-18
16
-17
25
-15
55
-14
57
-13
47
-14
22
-16
3
-18
-8
-21
-11
-25
-6
-27
27
-29
13
-28
42
-25
38
-20
47
-12
40
-2
49
9
37
22
61
37
83
52
115
68
125
84
162
101
182
117
211
132
202
144
193
151
185
151
169
145
161
132
146
112
125
87
126
59
83
32
50
8
25
-11
17
-23
-14
-30
1
-31
-3
-28
16
-22
35
-17
56
-12
47
-9
44
-7
47
-7
29
-6
6
-6
19
-6
31
-5
35
-4
39
-3
67
-4
62
-5
44
-7
25
-10
17
-12
15
-13
6
-13
24
-12
31
-10
39
-8
67
-6
60
-4
36
-4
40
-4
20
-5
12
-6
22
-8
31
-9
35
-9
50
-9
61
-8
51
-7
46
-6
37
-4
26
-3
18
-2
7
-2
36
-2
43
-2
51
-3
68
-3
53
-3
48
-3
37
-2
41
-1
23
0
28
1
25
2
34
2
61
2
68
1
64
-1
43
-2
35
-3
26
-2
29
0
25
3
36
6
63
10
79
13
81
15
70
15
71
15
50
14
28
13
31
12
42
13
59
14
70
16
91
19
73
22
88
24
68
25
61
26
52
26
53
25
49
26
62
27
70
28
102
31
104
35
99
38
90
41
78
43
66
44
72
44
64
44
74
42
85
41
103
40
97
39
114
39
95
40
70
40
47
41
65
41
76
41
82
41
84
40
103
40
105
40
95
39
85
39
83
40
64
39
68
39
60
38
74
36
93
34
106
31
85
28
82
25
72
23
69
21
41
19
45
18
39
17
50
15
51
13
81
10
82
7
59
3
38
-2
30
-6
1
-9
20
-11
19
-11
32
-11
39
-11
53
-11
49
-10
46
-11
34
-13
32
-15
4
-18
3
-20
10
-22
10
-24
22
-25
46
-25
44
-26
39
-26
16
-26
2
-26
-2
-26
-6
-26
11
-26
29
-25
24
-25
22
-24
45
-23
39
-23
31
-23
24
-24
-6
-25
-8
-27
6
-29
25
-30
13
-31
31
-31
35
-30
22
-29
16
-28
15
-27
0
-26
1
-25
13
-24
24
-24
35
-24
38
-24
29
-23
34
-23
12
-22
14
-22
0
-22
5
-21
15
-21
23
-21
30
-21
38
-21
43
-21
32
-20
25
-19
20
-18
10
-17
7
-16
21
-15
31
-15
33
-16
52
-16
41
-17
33
-17
25
-17
10
-17
3
-17
5
-16
25
-16
39
-16
47
-15
52
-15
49
-15
35
-15
21
-15
15
-14
10
-13
13
-13
20
-12
38
-12
48
-12
55
-13
44
-15
37
-16
23
-17
-3
-18
1
-18
15
-17
27
-16
37
-14
41
-13
58
-12
55
-11
38
-11
26
-12
-2
-12
12
-13
27
-14
24
-14
37
-13
50
-13
51
-12
51
-12
42
-12
23
-13
1
-14
12
-16
5
-17
20
-19
21
-19
50
-20
47
-19
42
-19
33
-18
25
-18
10
-18
8
-18
4
-19
13
-19
27
-20
39
-20
37
-20
45
-20
42
-19
27
-17
-7
-16
3
-15
14
-14
34
-13
37
-13
57
-13
49
-13
36
-14
32
-14
26
-15
3
-16
7
-18
8
-19
26
-21
24
-22
38
-22
43
-22
38
-22
29
-21
22
-20
-7
-18
5
-17
20
-16
35
-15
36
-15
50
-15
45
-15
39
-15
23
-15
23
-14
10
-14
2
-13
3
-13
40
-13
39
-13
54
-13
43
-13
47
-13
39
-13
29
-12
7
-11
10
-9
28
-8
34
-7
38
-6
53
-5
54
-4
57
-3
47
-2
37
-1
25
0
19
1
18
0
41
-1
55
-3
53
-5
53
-7
52
-9
28
-10
28
-10
18
-10
11
-10
20
-10
42
-10
35
-11
37
-12
43
-14
44
-17
40
-19
22
-21
-12
-21
-9
-21
11
-20
32
-18
36
-16
47
-15
52
-13
43
-13
28
-12
11
-12
4
-13
18
-13
19
-14
18
-14
36
-15
59
-16
49
-16
29
-17
16
-18
16
-18
12
-19
7
-20
15
-20
15
-21
16
-21
41
-22
38
-23
27
-24
14
-24
4
-24
-6
-23
0
-22
21
-21
31
-19
36
-18
40
-17
44
-17
30
-17
12
-18
0
-19
4
-21
8
-23
14
-25
18
-26
23
-26
30
-26
30
-24
33
-21
34
-16
5
-9
21
1
42
12
75
26
92
42
114
59
127
78
150
96
170
112
190
126
169
136
166
141
166
140
175
132
163
118
165
98
132
75
98
50
56
25
29
3
-5
-15
-16
-28
-12
-35
15
-37
12
-35
29
-29
42
-22
40
-15
32
-8
43
-4
27
-2
18
-2
13
-5
21
-8
26
-12
41
-15
57
-17
42
-17
30
-16
21
-13
4
-10
8
-7
29
-4
28
-3
40
-3
55
-5
54
-7
49
-9
29
-11
20
-11
4
-11
6
-9
24
-7
31
-5
42
-4
63
-4
59
-5
41
-6
17
-8
21
-9
11
-9
8
-8
17
-6
49
-3
47
-1
66
1
65
3
49
3
41
2
33
1
13
0
11
-1
27
-1
47
-1
45
1
71
2
78
4
53
6
39
7
34
7
28
7
29
6
49
5
59
5
39
5
56
6
64
8
51
10
38
12
56
13
51
15
40
16
38
17
51
17
56
18
78
19
76
20
79
22
60
23
55
25
45
26
38
28
60
29
64
30
83
31
94
32
98
33
88
35
72
38
65
40
54
42
53
43
79
44
84
45
101
45
112
46
114
48
112
51
85
54
68
58
79
62
94
65
103
67
109
67
107
67
128
65
121
63
99
60
95
59
78
58
70
57
72
57
91
57
101
57
113
56
104
54
95
52
98
49
93
46
55
43
56
40
68
37
61
35
76
33
95
30
87
27
66
25
60
22
54
20
40
19
28
18
29
17
57
17
60
16
75
15
60
13
56
10
53
7
42
4
15
2
14
0
15
0
25
-1
44
-1
70
-1
62
-2
63
-3
26
-5
12
-8
8
-10
12
-11
2
-12
19
-11
32
-9
53
-7
55
-5
51
-4
36
-3
31
-4
3
-6
4
-8
7
-9
17
-10
35
-10
52
-9
57
-8
51
-6
34
-4
14
-3
-4
-3
11
-4
12
-5
29
-6
29
-7
61
-7
64
-6
42
-4
36
-2
31
0
1
1
-2
1
30
0
44
-3
25
-5
47
-7
55
-9
49
-8
39
-7
26
-5
-5
-2
13
1
23
3
36
4
47
3
67
1
55
0
44
-2
23
-3
18
-3
9
-2
25
-1
22
-1
31
0
43
-1
60
-2
56
-3
35
-4
26
-5
17
-5
13
-3
9
-1
35
1
41
3
46
4
58
4
49
3
45
0
33
-3
12
-5
4
-7
5
-8
8
-8
25
-7
45
-6
67
-4
63
-3
35
-1
20
0
13
1
5
1
20
2
22
2
36
2
47
1
67
0
63
-2
30
-4
9
-6
0
-8
5
-8
17
-8
23
-7
36
-5
43
-3
56
-1
61
0
40
0
27
0
6
-2
7
-4
9
-6
22
-7
29
-7
46
-7
46
-6
46
-5
42
-3
26
-2
9
-2
8
-2
15
-3
19
-4
30
-5
50
-6
40
-6
47
-6
32
-5
26
-3
24
-2
7
0
10
1
40
2
52
3
50
2
50
1
49
0
23
-2
23
-3
6
-5
13
-5
9
-5
29
-5
41
-4
59
-2
49
-2
42
-1
29
-2
19
-3
7
-5
1
-7
8
-9
13
-10
30
-10
51
-9
49
-7
45
-3
33
0
37
2
12
3
17
3
13
0
23
-4
16
-9
32
-14
40
-19
26
-22
12
-24
5
-23
-12
-22
-14
-20
2
-18
16
-17
16
-16
39
-16
30
-17
33
-19
23
-20
13
-21
-14
-21
-10
-20
-11
-19
-5
-18
11
-17
52
-17
40
-16
27
-16
14
-17
8
-17
-14
-18
2
-18
-12
-18
7
-18
19
-19
25
-19
26
-20
33
-20
15
-21
11
-21
-24
-21
-16
-20
10
-18
17
-17
14
-15
38
-14
33
-14
19
-15
19
-16
19
-19
-10
-21
-26
-24
-10
-26
7
-28
13
-29
21
-29
23
-29
24
-28
-8
-27
-3
-26
-12
-25
-12
-24
-5
-22
8
-19
29
-14
49
-7
62
3
55
16
59
31
76
49
75
68
103
87
122
105
163
121
186
134
193
141
198
143
185
138
161
127
123
111
87
90
76
66
55
41
38
17
36
-3
12
-18
13
-29
10
-33
0
-33
-4
-30
-9
-25
-17
-20
6
-15
20
-12
34
-12
41
-12
27
-14
13
-15
10
-16
1
-16
3
-15
-2
-13
19
-11
24
-9
28
-8
25
-8
29
-9
23
-10
27
-12
1
-13
1
-13
-4
-12
18
-10
31
-8
41
-6
50
-4
34
-3
36
-3
8
-3
8
-4
9
-5
12
-7
21
-7
34
-8
44
-8
33
-8
23
-8
19
-8
18
-7
7
-6
11
-4
11
-2
24
0
39
3
63
5
64
6
54
7
31
6
14
5
-7
4
6
2
19
0
36
-1
32
-1
58
0
53
1
42
3
34
4
19
5
11
6
19
6
21
6
32
5
33
3
46
2
51
2
45
1
38
1
26
2
13
3
9
5
13
6
32
8
33
10
70
12
65
14
65
16
48
17
39
19
30
21
28
22
37
22
43
22
42
21
68
20
69
19
67
19
54
20
47
22
19
25
29
29
54
34
74
38
89
42
89
44
85
45
84
44
77
42
74
40
33
37
29
36
48
35
70
36
74
37
90
38
85
39
76
39
59
39
54
37
34
35
40
32
47
30
59
27
62
25
70
22
58
20
46
16
39
13
24
9
14
4
3
1
17
-2
21
-4
15
-5
42
-4
53
-4
46
-3
22
-4
-2
-5
-11
-8
-14
-12
-7
-17
9
-22
13
-26
13
-29
16
-30
18
-30
-1
-30
-18
-29
-27
-28
-20
-27
-4
-27
0
-28
-3
-29
18
-30
20
-31
13
-32
0
-32
-15
-32
-24
-32
-25
-32
-14
-32
-7
-32
7
-32
16
-31
12
-30
3
-29
4
-28
-18
-27
-23
-27
-16
-27
2
-27
0
-27
-1
-28
23
-28
23
-28
6
-27
-3
-26
-21
-24
-16
-22
-5
-20
7
-19
8
-18
32
-18
32
-18
29
-19
3
-20
-8
-21
-22
-21
-10
-21
-4
-22
-9
-22
10
-23
25
-23
26
-24
13
-25
3
-25
-9
-24
-12
-23
-3
-22
-7
-20
-6
-18
17
-16
30
-16
28
-16
27
-17
3
-19
4
-21
-11
-23
-20
-25
-16
-26
-17
-26
-11
-25
26
-23
30
-21
31
-19
10
-16
11
-14
-14
-13
-5
-12
6
-12
13
-12
10
-13
25
-15
26
-17
26
-19
-4
-20
3
-22
-8
-23
-16
-23
-13
-22
-3
-20
7
-18
33
-16
29
-14
22
-12
12
-12
14
-12
-3
-12
-16
-14
-19
-15
7
-17
21
-18
38
-19
33
-20
14
-20
-2
-20
-10
-20
-24
-19
-13
-19
-5
-18
3
-19
13
-19
28
-20
34
-21
17
-21
3
-22
-12
-22
-30
-22
-18
-21
0
-20
16
-19
28
-18
20
-17
17
-18
16
-18
-1
-19
-1
-20
-22
-21
-11
-22
-9
-22
7
-21
23
-19
28
-17
33
-15
17
-14
-4
-13
-2
-13
-1
-14
-7
-16
7
-18
3
-21
-2
-22
19
-23
24
-23
20
-22
17
-21
0
-20
-28
-18
-23
-18
-5
-18
9
-18
23
-19
30
-20
21
-20
22
-20
-4
-19
-12
-18
-13
-16
-2
-15
7
-14
13
-14
19
-14
28
-14
27
-15
19
-15
12
-15
-7
-14
-17
-13
-1
-11
9
-10
17
-9
32
-9
42
-9
36
-10
29
-10
3
-10
-7
-10
-27
-9
12
-7
24
-4
25
-2
49
0
47
1
46
2
25
2
20
0
-4
-1
3
-3
6
-5
16
-7
24
-9
30
-11
9
-12
27
-13
15
-14
12
-15
-6
-16
-14
-16
-17
-16
-7
-16
23
-15
41
-15
31
-14
25
-14
2
-14
3
-14
-9
-15
-21
-17
-10
-18
-6
-20
14
-21
38
-22
18
-22
20
-22
1
-21
1
-19
-15
-16
-16
-14
2
-12
5
-11
21
-10
34
-10
30
-11
39
-13
19
-15
3
-17
-28
-19
-22
-21
-15
-22
-2
-23
9
-22
25
-22
23
-21
22
-20
5
-20
0
-20
-22
-20
-20
-21
-9
-22
-5
-23
17
-24
39
-24
12
-23
3
-22
-3
-19
4
-16
-16
-11
5
-5
20
4
33
14
58
28
103
45
110
64
106
85
127
106
165
126
163
142
164
152
177
155
187
151
171
138
151
118
118
93
98
66
62
38
29
12
-9
-9
-40
-23
-34
-32
-17
-34
5
-32
29
-26
38
-18
35
-10
27
-4
10
-1
-4
1
-7
-1
8
-3
20
-7
21
-10
28
-13
30
-15
20
-15
11
-14
12
-12
-11
-11
-12
-9
7
-8
18
-7
33
-7
39
-7
27
-8
23
-8
16
-9
-2
-9
2
-10
2
-10
9
-10
21
-9
33
-9
41
-9
28
-8
22
-7
10
-5
13
-4
4
-3
4
-1
7
0
23
0
41
0
43
-1
48
-1
28
-2
13
-2
5
-3
4
-3
2
-2
14
-2
30
-1
43
1
49
2
38
3
23
5
35
7
13
8
11
9
15
10
24
11
36
11
53
11
55
11
48
11
33
10
28
11
9
11
16
13
35
14
52
15
41
17
60
18
56
19
50
19
37
20
44
21
32
22
30
23
22
25
38
27
60
29
87
31
81
33
71
34
60
36
63
37
32
38
43
40
51
41
59
43
76
46
104
48
99
50
91
52
83
54
72
55
60
55
57
55
61
55
73
55
77
55
107
55
100
57
91
58
76
60
83
61
61
62
71
63
80
62
71
60
81
57
87
54
87
51
90
48
72
45
70
43
39
41
43
40
54
38
64
37
57
35
73
33
68
31
67
28
45
25
34
22
25
20
14
17
25
15
37
12
35
10
48
8
54
7
46
5
25
3
17
2
4
1
5
0
0
-1
20
-2
20
-2
50
-3
50
-3
30
-3
18
-4
5
-4
-9
-5
-6
-6
-3
-7
17
-8
31
-9
47
-10
27
-11
18
-11
18
-11
10
-11
-9
-10
-7
-9
5
-8
13
-8
21
-7
34
-7
38
-8
30
-9
20
-11
-2
-12
-9
-14
-9
-15
-4
-15
6
-14
12
-13
34
-11
40
-9
28
-7
22
-5
21
-4
1
-3
-5
-3
-1
-3
18
-3
38
-4
39
-4
40
-4
28
-4
13
-4
0
-4
2
-4
-6
-5
-9
-5
24
-6
35
-6
47
-6
50
-6
27
-6
12
-5
1
-4
6
-4
-7
-4
16
-4
15
-5
32
-6
38
-7
32
-8
19
-8
7
-8
-9
-6
8
-5
12
-2
22
-1
24
1
37
1
37
0
31
-1
25
-3
28
-6
2
-8
-1
-9
-8
-9
6
-9
13
-7
43
-5
47
-2
33
0
24
1
20
1
7
0
5
-1
21
-3
7
-5
9
-7
35
-8
31
-9
34
-8
20
-7
1
-6
-8
-4
5
-3
13
-3
22
-3
20
-5
45
-6
35
-8
17
-10
7
-12
2
-13
-11
-13
-12
-13
5
-13
20
-12
22
-11
33
-10
34
-9
20
-8
13
-6
18
-5
13
-3
13
-2
9
-2
4
-2
9
-3
38
-5
41
-8
24
-10
8
-12
2
-13
-13
-13
-3
-12
17
-10
20
-8
11
-7
34
-6
25
-7
23
-9
18
-11
13
-13
-7
-14
-7
-15
4
-14
4
-12
20
-9
43
-7
41
-5
18
-4
21
-4
11
-5
-4
-6
-7
-8
1
-8
18
-8
27
-8
53
-7
34
-6
23
-6
13
-6
1
-7
-11
-8
-10
-10
-9
-11
17
-11
36
-10
45
-8
45
-5
35
-1
31
2
18
5
8
7
0
8
14
7
35
6
46
4
50
3
54
2
35
1
30
1
0
1
-11
1
5
1
12
-1
39
-3
39
-6
29
-9
23
-12
4
-14
7
-15
-6
-15
-5
-14
7
-13
5
-12
8
-11
28
-12
25
-13
29
-14
22
-16
5
-18
-4
-19
-21
-20
-16
-19
3
-18
17
-16
38
-15
29
-14
16
-13
23
-14
1
-15
-7
-17
-19
-19
-14
-20
-3
-21
10
-22
27
-21
35
-21
19
-19
12
-18
12
-17
-14
-16
-18
-16
-17
-16
6
-17
11
-17
22
-18
33
-18
26
-18
16
-19
9
-19
-22
-20
-21
-22
-19
-23
-5
-25
12
-26
27
-26
22
-26
9
-24
4
-21
1
-15
-15
-8
10
1
22
12
60
25
74
40
115
58
108
76
129
96
150
115
161
133
170
147
169
156
174
158
174
153
166
140
168
121
139
96
109
69
69
41
25
17
-22
-4
-27
-18
-22
-26
-1
-29
5
-28
28
-24
30
-19
33
-14
25
-11
18
-8
-12
-8
-2
-8
6
-9
15
-10
22
-10
36
-10
42
-11
25
-11
21
-11
12
-12
-6
-12
-18
-13
-7
-13
15
-12
24
-11
42
-9
38
-7
29
-5
15
-3
21
-2
8
-2
-9
-3
10
-4
28
-5
21
-6
47
-8
44
-8
26
-8
3
-8
9
-8
-10
-8
-2
-8
12
-8
22
-7
31
-7
45
-7
46
-6
31
-4
7
-3
11
-1
6
1
14
2
34
2
42
2
31
1
32
0
44
-1
29
-2
21
-2
14
-1
14
0
16
2
21
5
28
8
48
10
62
12
57
13
51
13
33
13
13
12
25
12
24
13
32
14
50
15
55
16
64
18
71
20
64
21
46
21
21
22
22
22
37
22
45
22
39
22
67
24
86
25
70
28
63
30
59
33
51
36
53
38
62
40
59
41
65
42
76
43
78
44
93
45
75
47
87
49
70
51
57
53
59
55
80
56
90
57
109
57
101
56
108
55
89
54
65
53
45
52
57
52
61
51
70
50
82
49
97
47
93
46
89
44
69
42
60
40
31
37
47
35
52
32
46
29
53
25
71
21
62
16
49
12
36
9
21
6
-1
4
12
2
19
1
21
0
28
-1
44
-3
56
-6
29
-9
25
-12
1
-15
-10
-17
-13
-19
-2
-19
11
-18
26
-16
44
-15
33
-14
17
-14
10
-15
16
-17
-16
-19
-25
-22
-15
-23
8
-24
18
-24
22
-23
27
-22
15
-20
14
-18
13
-16
-9
-15
-3
-15
-9
-15
2
-17
12
-18
30
-20
30
-22
23
-23
-6
-24
-8
-24
-23
-24
-13
-23
3
-21
13
-20
10
-18
40
-17
44
-16
17
-16
-5
-16
0
-17
-8
-17
-11
-18
1
-18
18
-18
25
-18
31
-17
37
-16
25
-16
-3
-15
6
-14
2
-13
2
-13
-11
-12
16
-12
24
-12
45
-13
41
-14
33
-16
7
-17
-13
-18
-18
-18
-15
-18
12
-17
19
-16
34
-14
43
-12
38
-11
29
-10
21
-10
6
-11
-11
-12
-20
-14
-3
-16
10
-18
25
-19
28
-19
37
-19
30
-19
11
-18
5
-17
-15
-16
-15
-16
3
-16
13
-16
19
-17
37
-18
46
-18
24
-19
2
-19
-12
-18
-7
-18
-2
-16
8
-15
17
-13
40
-12
37
-11
46
-11
21
-11
17
-12
-8
-13
-18
-14
-2
-16
12
-17
22
-17
28
-18
32
-18
35
-19
15
-20
-3
-21
-25
-22
-13
-24
-19
-25
-2
-26
18
-26
35
-25
39
-23
20
-21
16
-19
1
-17
-16
-16
-7
-16
-3
-16
15
-18
24
-19
25
-20
29
-20
24
-20
10
-18
13
-16
6
-14
0
-13
9
-12
-1
-13
7
-14
40
-16
32
-19
32
-21
11
-23
6
-23
-21
-23
-9
-22
-9
-21
2
-20
16
-19
36
-19
32
-20
23
-21
6
-21
8
-22
-29
-21
-13
-19
10
-17
29
-15
24
-12
47
-10
41
-9
30
-8
15
-9
1
-11
1
-13
5
-14
6
-16
9
-16
9
-15
47
-14
49
-11
30
-8
22
-6
22
-3
8
-2
3
-1
8
-2
29
-3
48
-5
61
-7
33
-9
24
-10
13
-10
17
-11
6
-11
-2
-11
-9
-12
15
-13
29
-16
33
-18
24
-21
19
-24
5
-25
1
-26
-20
-25
-13
-23
5
-21
14
-19
10
-17
44
-16
34
-16
15
-17
14
-18
-1
-19
-9
-20
-6
-21
-2
-22
9
-22
22
-22
31
-22
31
-23
21
-23
10
-24
-11
-24
-17
-24
-16
-23
-19
-23
15
-22
28
-22
41
-22
36
-23
14
-25
-8
-28
-22
-30
-26
-32
-21
-34
-3
-34
20
-33
18
-32
23
-29
25
-26
15
-24
2
-23
1
-24
-7
-25
-30
-28
-6
-30
-3
-33
24
-35
23
-35
-7
-32
10
-28
-2
-20
8
-10
21
2
43
17
62
35
87
54
123
74
151
95
172
116
186
133
182
147
179
155
181
157
166
150
165
136
152
115
132
90
104
62
79
34
41
8
3
-13
-34
-27
-24
-36
-18
-38
-1
-36
18
-31
37
-25
41
-20
18
-16
10
-14
31
-13
-11
-14
-4
-16
0
-17
7
-19
14
-19
33
-19
42
-19
32
-18
13
-17
6
-16
-5
-15
-7
-15
9
-14
28
-13
27
-12
51
-12
39
-12
33
-12
14
-13
13
-14
-16
-15
-7
-15
17
-15
23
-14
31
-12
48
-9
47
-6
34
-3
20
-2
21
-2
12
-3
9
-5
20
-8
14
-11
32
-13
41
-13
39
-12
38
-10
27
-7
25
-4
18
-1
10
2
23
4
46
5
46
5
57
5
60
4
47
4
37
4
35
4
17
5
14
5
22
5
35
5
39
4
53
3
53
3
53
2
41
3
29
3
24
4
23
5
23
6
38
8
53
9
60
10
67
11
51
13
45
16
49
19
46
22
40
26
53
30
75
33
72
37
95
39
88
40
74
41
63
41
66
42
64
42
60
43
76
45
89
47
101
50
105
53
112
55
95
56
87
57
79
56
62
55
69
54
81
52
94
51
108
51
97
51
96
52
88
54
100
55
76
56
68
57
72
56
79
55
80
52
96
50
100
47
93
45
88
43
75
42
54
41
52
39
49
38
57
36
65
34
75
32
80
29
81
26
62
23
47
21
32
18
26
15
20
11
36
7
38
3
50
-1
50
-4
34
-7
38
-8
31
-8
-3
-7
14
-4
18
-2
33
0
39
2
59
2
50
0
40
-3
34
-7
10
-10
3
-13
6
-15
2
-16
14
-15
32
-14
49
-12
40
-10
36
-8
27
-7
33
-6
6
-6
16
-6
14
-6
24
-7
15
-8
45
-10
48
-12
27
-15
25
-17
12
-19
-26
-19
-7
-19
7
-17
35
-13
29
-10
47
-6
57
-3
47
-1
31
-1
34
-2
-14
-4
-1
-7
25
-9
29
-11
31
-11
46
-11
48
-9
41
-7
22
-5
25
-4
4
-3
10
-3
29
-4
28
-4
32
-5
50
-6
53
-6
38
-6
20
-5
22
-4
9
-4
4
-4
10
-5
30
-7
31
-8
38
-10
48
-11
45
-11
24
-10
13
-8
-1
-6
17
-3
23
0
43
2
40
3
61
2
61
0
42
-3
21
-6
-2
-10
-9
-13
-9
-15
10
-15
36
-14
41
-12
56
-9
43
-5
42
-2
21
0
23
2
12
1
5
-1
17
-3
25
-7
32
-11
48
-14
50
-16
26
-17
17
-17
5
-15
-3
-14
7
-12
18
-10
24
-9
46
-8
57
-8
35
-8
32
-8
15
-9
14
-9
12
-10
7
-10
20
-10
25
-11
26
-11
38
-11
33
-11
28
-11
30
-10
31
-9
11
-8
6
-7
15
-7
31
-7
32
-8
29
-10
42
-12
29
-13
18
-15
-2
-15
5
-15
8
-14
21
-13
19
-12
36
-11
38
-11
42
-11
34
-12
15
-13
6
-14
11
-15
-8
-15
12
-14
28
-13
43
-12
46
-11
36
-11
26
-10
16
-11
2
-11
9
-12
16
-12
16
-12
18
-12
40
-11
48
-11
33
-10
18
-10
26
-10
4
-10
1
-10
7
-11
20
-12
44
-12
37
-12
41
-13
32
-13
17
-13
11
-13
1
-13
-8
-13
-1
-13
15
-12
31
-10
58
-7
51
-4
57
-1
29
1
34
3
7
4
17
3
21
1
24
-1
32
-3
50
-4
54
-5
36
-5
31
-5
28
-3
14
-2
14
-2
20
-3
32
-4
25
-6
37
-9
38
-12
39
-14
27
-15
2
-15
-15
-14
3
-12
8
-11
29
-9
38
-9
37
-10
36
-12
36
-15
13
-18
-5
-21
-10
-23
-12
-23
3
-23
18
-21
33
-18
48
-16
31
-14
29
-13
27
-13
20
-15
-9
-17
-8
-19
2
-21
10
-22
17
-22
32
-22
24
-21
28
-21
26
-20
6
-20
-23
-21
-7
-22
5
-23
6
-24
21
-24
34
-23
33
-22
29
-20
18
-19
0
-19
-12
-19
-10
-20
1
-22
8
-24
27
-25
36
-26
23
-26
4
-24
6
-22
-8
-20
-20
-16
13
-11
27
-3
56
7
73
20
88
37
104
57
124
79
138
102
145
122
167
138
164
148
178
150
181
145
195
131
160
112
131
88
101
63
67
39
27
17
2
-2
-24
-16
-8
-25
8
-31
21
-33
21
-33
16
-31
15
-27
12
-23
-7
-19
-1
-15
9
-11
17
-9
23
-8
40
-8
43
-10
44
-12
30
-15
1
-18
-9
-20
-7
-21
-1
-20
10
-18
31
-15
32
-12
45
-8
40
-5
36
-3
23
-3
9
-4
6
-5
11
-8
12
-11
25
-13
44
-15
33
-16
27
-15
20
-14
18
-12
6
-9
13
-6
10
-3
21
-1
45
0
53
1
63
1
43
1
33
0
33
-1
14
-2
10
-3
11
-4
8
-4
24
-5
62
-5
58
-4
36
-3
31
-2
32
-1
6
0
22
2
26
3
28
4
28
4
63
5
62
6
43
7
39
8
40
9
29
11
23
12
42
13
34
14
37
14
60
14
75
15
70
15
44
16
43
18
38
20
28
23
53
25
66
27
58
29
81
30
86
30
71
30
66
31
60
32
54
33
47
36
59
39
75
42
81
45
99
48
103
50
89
52
89
52
88
53
63
53
70
53
77
53
90
53
101
53
101
53
80
51
92
50
85
47
70
46
58
44
59
44
65
45
82
47
99
50
104
52
107
54
87
53
70
51
73
48
61
43
46
37
49
32
41
28
67
26
88
25
78
25
65
26
59
27
46
26
35
24
26
20
21
16
36
10
47
5
52
1
53
-1
43
-2
33
-2
5
0
6
1
8
2
35
1
49
0
41
-2
42
-5
29
-8
15
-11
5
-13
-4
-14
-6
-14
-2
-14
25
-13
28
-12
38
-11
44
-10
34
-10
14
-10
12
-11
-3
-12
6
-13
5
-15
-2
-16
11
-17
30
-18
37
-18
42
-17
25
-15
6
-14
-5
-12
7
-10
-2
-9
11
-9
25
-10
49
-11
38
-13
28
-15
17
-16
6
-16
-3
-15
10
-14
10
-11
5
-9
12
-7
43
-6
48
-6
32
-6
28
-7
28
-8
-3
-8
13
-8
26
-8
11
-8
25
-8
28
-8
27
-9
30
-11
25
-12
17
-14
-11
-15
-5
-15
12
-13
19
-11
21
-9
34
-7
45
-6
39
-6
23
-7
13
-9
-14
-12
-8
-14
11
-16
14
-16
12
-16
48
-16
30
-15
27
-14
4
-14
1
-14
-3
-14
4
-14
12
-14
26
-13
27
-11
41
-9
35
-7
31
-6
22
-6
14
-7
-1
-9
-2
-12
3
-15
9
-18
-1
-20
22
-20
37
-20
38
-18
21
-16
-7
-14
0
-13
-6
-12
10
-11
11
-12
26
-12
38
-13
31
-14
25
-14
16
-15
13
-15
2
-15
-1
-16
-11
-17
11
-18
9
-19
20
-20
38
-21
23
-21
16
-21
3
-20
-2
-18
3
-17
7
-15
3
-15
19
-15
22
-15
35
-16
35
-17
13
-18
-3
-18
-19
-18
-3
-18
2
-17
19
-17
24
-16
22
-16
31
-16
22
-16
9
-17
-3
-17
-6
-18
-1
-19
8
-19
25
-20
17
-21
27
-21
14
-21
8
-22
15
-22
-16
-23
-21
-23
-9
-24
-6
-25
13
-25
30
-26
20
-26
15
-26
11
-25
8
-25
-21
-23
-18
-21
-1
-19
26
-17
12
-14
34
-12
34
-11
28
-10
11
-11
11
-12
-8
-14
-7
-16
7
-19
19
-20
4
-20
25
-19
30
-16
26
-12
31
-8
15
-4
1
-1
24
1
21
1
15
0
20
-3
37
-5
33
-8
37
-10
31
-10
19
-10
-3
-9
3
-7
9
-6
12
-6
25
-7
34
-8
34
-10
31
-12
33
-14
4
-15
-18
-16
-8
-15
7
-15
13
-14
12
-14
27
-14
29
-16
28
-18
9
-20
8
-22
-18
-23
-16
-24
-7
-23
7
-22
22
-20
39
-18
30
-17
11
-15
-2
-15
13
-15
-10
-16
-17
-17
8
-18
3
-18
15
-19
31
-19
34
-18
21
-18
15
-18
2
-18
-6
-19
-12
-20
-15
-21
10
-22
3
-22
22
-23
25
-22
23
-21
6
-20
11
-18
-12
-17
-7
-16
-2
-16
16
-18
16
-20
18
-23
20
-26
15
-29
0
-30
-17
-31
-23
-30
-36
-27
-11
-22
19
-15
39
-6
68
5
67
18
62
32
76
48
76
66
85
85
119
103
151
120
183
135
195
144
210
148
191
145
162
136
138
119
117
98
74
73
51
47
29
22
24
1
6
-16
11
-28
19
-34
5
-36
-8
-35
-18
-31
-20
-27
-15
-22
9
-18
14
-14
32
-11
45
-9
33
-7
34
-6
32
-5
6
-5
-7
-5
-11
-6
-2
-8
21
-10
40
-12
48
-13
32
-14
19
-14
-4
-13
-19
-12
3
-10
1
-8
16
-7
38
-6
50
-5
37
-5
36
-5
14
-6
13
-6
-1
-6
11
-6
8
-7
3
-7
16
-7
36
-7
50
-7
40
-6
35
-6
24
-6
-3
-5
1
-4
8
-3
10
-3
33
-2
49
-2
46
-1
47
-1
43
0
24
0
-6
1
3
1
10
2
31
3
39
4
58
4
45
5
52
6
39
6
36
7
6
8
9
9
21
9
32
10
38
11
69
11
58
12
50
14
41
15
44
18
38
20
29
23
28
25
40
27
71
28
80
29
73
29
70
28
57
28
55
28
16
29
32
31
62
35
66
38
82
42
98
46
95
49
85
50
67
51
69
51
52
51
53
51
61
52
86
54
93
56
114
59
108
63
98
66
90
68
97
68
70
68
81
66
71
64
84
61
107
58
104
55
103
53
82
51
69
49
71
48
57
46
47
44
40
41
65
39
74
37
85
36
87
35
69
35
62
34
58
34
39
32
29
30
29
26
46
22
53
17
66
13
63
9
37
7
27
6
31
6
19
6
-2
6
19
6
26
5
35
2
52
0
49
-3
29
-6
20
-7
2
-8
-8
-7
1
-6
24
-5
32
-4
33
-4
42
-4
30
-6
21
-7
13
-8
7
-10
8
-10
4
-11
5
-11
7
-12
29
-12
37
-13
30
-14
7
-15
-4
-16
-10
-15
5
-15
14
-13
16
-12
24
-10
38
-9
21
-8
30
-8
21
-8
15
-7
3
-6
0
-5
9
-4
34
-3
32
-3
38
-4
35
-6
22
-9
21
-12
-1
-15
-3
-17
-9
-18
-11
-17
7
-15
21
-11
47
-8
37
-6
45
-4
28
-4
16
-4
-1
-6
-3
-7
-1
-8
13
-7
21
-7
49
-5
44
-3
37
-2
41
-1
14
-2
-8
-2
-6
-4
2
-5
19
-6
41
-7
49
-7
39
-7
31
-6
14
-6
9
-6
0
-6
-8
-6
2
-7
31
-8
32
-8
35
-9
31
-9
27
-9
23
-9
16
-9
-7
-9
0
-9
10
-9
20
-9
30
-9
33
-8
33
-9
32
-9
22
-10
9
-11
4
-13
-6
-14
-13
-15
-13
-15
22
-15
50
-13
34
-11
27
-9
10
-7
13
-6
1
-5
-1
-5
14
-7
27
-8
23
-10
31
-11
32
-12
23
-12
9
-12
3
-12
-9
-12
-5
-12
9
-13
16
-15
21
-16
28
-17
31
-18
25
-19
4
-19
0
-18
-21
-17
-8
-16
-3
-15
8
-14
30
-13
43
-13
33
-13
29
-12
10
-12
7
-11
-10
-11
-6
-10
1
-10
12
-10
18
-11
38
-11
41
-12
32
-13
9
-13
-20
-14
-19
-14
3
-14
11
-14
14
-15
18
-15
27
-16
37
-15
18
-15
11
-14
4
-12
-6
-10
14
-8
9
-7
22
-7
20
-9
26
-11
26
-15
18
-18
-4
-21
-10
-23
-17
-23
-16
-22
-1
-20
18
-17
33
-15
41
-13
35
-13
18
-14
5
-15
-14
-18
-19
-20
-19
-21
-2
-21
18
-20
34
-18
42
-15
49
-13
26
-12
-3
-11
-16
-12
-15
-13
-13
-15
5
-17
16
-17
40
-17
45
-15
21
-12
19
-9
15
-6
6
-4
0
-3
13
-3
15
-4
19
-6
30
-9
37
-10
39
-11
22
-10
16
-9
6
-6
2
-4
4
-2
25
0
38
1
49
1
61
1
41
0
18
-1
19
-2
2
-2
1
-3
7
-3
12
-4
25
-5
42
-6
40
-8
38
-10
13
-12
10
-13
-7
-14
-7
-14
-10
-14
1
-13
28
-13
40
-12
35
-12
31
-11
15
-11
6
-12
-17
-12
-1
-13
11
-15
6
-16
8
-18
25
-19
30
-20
17
-21
10
-21
1
-21
-13
-20
-15
-19
3
-17
11
-16
4
-15
31
-15
36
-15
17
-16
21
-17
2
-19
-18
-20
-19
-20
-2
-20
3
-20
15
-19
34
-18
24
-16
23
-15
19
-14
15
-14
-2
-15
-2
-17
-17
-19
-8
-21
14
-24
15
-26
14
-28
8
-28
8
-27
-9
-26
-24
-23
-18
-18
1
-13
19
-6
43
2
74
12
72
24
79
39
74
56
79
74
96
94
126
113
162
130
189
144
206
152
213
154
189
149
174
136
139
117
96
93
64
66
37
40
22
15
18
-5
11
-20
7
-30
12
-34
11
-33
6
-29
-6
-23
-25
-18
-9
-13
9
-9
31
-7
35
-7
37
-9
25
-10
8
-12
18
-14
-8
-14
-6
-14
-15
-14
11
-12
23
-11
34
-9
35
-8
37
-7
24
-6
19
-6
-1
-7
-3
-8
-7
-8
12
-9
21
-9
43
-8
39
-7
39
-6
20
-5
13
-3
1
-3
7
-3
2
-4
21
-6
22
-8
29
-9
34
-10
34
-10
28
-8
11
-6
-2
-3
7
-1
13
1
23
2
28
1
37
0
38
-1
45
-2
17
-2
20
-2
8
0
10
1
18
3
34
4
41
5
53
4
39
3
37
2
13
1
28
2
6
4
16
7
21
10
47
14
47
16
70
18
53
18
54
17
30
16
39
14
23
14
22
15
35
18
38
21
57
25
85
28
72
30
64
31
46
31
47
31
32
31
36
32
53
34
64
37
69
41
90
45
111
49
92
52
65
53
55
53
54
52
62
50
71
48
82
47
93
48
93
50
90
53
82
56
87
59
80
61
66
61
63
61
78
59
80
56
92
54
107
52
82
51
80
50
81
50
61
51
58
51
58
50
70
49
68
46
66
43
84
40
87
36
63
33
52
31
43
30
33
28
34
27
39
26
46
24
51
22
55
19
55
15
36
11
25
8
11
4
3
1
7
-1
15
-3
30
-4
29
-5
39
-6
28
-7
23
-7
21
-8
-3
-8
-8
-8
0
-8
6
-8
13
-8
27
-9
49
-11
30
-13
4
-15
-1
-17
-4
-18
-7
-19
-16
-19
0
-18
16
-16
30
-14
28
-12
25
-9
17
-8
19
-7
4
-7
-8
-7
-3
-8
2
-10
11
-12
30
-14
21
-16
28
-17
24
-18
0
-18
-23
-17
-9
-16
-17
-14
-1
-13
22
-12
40
-11
42
-11
19
-11
11
-12
16
-13
-11
-13
-14
-13
-16
-13
5
-13
28
-12
29
-11
32
-10
29
-9
12
-9
14
-8
-5
-8
-11
-8
-2
-8
8
-9
11
-9
30
-10
35
-10
35
-10
21
-10
2
-10
-11
-9
-18
-8
7
-8
10
-7
25
-7
43
-7
34
-8
20
-8
15
-10
15
-11
-7
-12
-13
-13
-3
-13
9
-14
8
-13
28
-13
38
-13
27
-12
17
-12
5
-12
-12
-12
-11
-12
2
-12
-13
-13
25
-13
43
-13
28
-12
24
-12
15
-11
17
-11
-15
-10
-19
-10
7
-11
19
-12
11
-13
19
-14
33
-16
11
-16
-8
-17
-2
-17
-6
-16
1
-15
-4
-14
10
-13
15
-12
23
-12
38
-13
9
-14
9
-15
2
-15
-11
-16
-14
-16
-10
-15
-8
-14
8
-13
35
-12
39
-11
25
-11
8
-12
-1
-13
-21
-14
-16
-16
-7
-16
10
-16
32
-16
27
-15
27
-14
15
-13
0
-12
-6
-12
-22
-13
-12
-15
-2
-18
-1
-20
12
-22
26
-23
26
-23
8
-22
1
-20
-13
-17
-14
-14
-16
-12
5
-11
12
-10
20
-10
25
-10
33
-11
19
-12
-2
-13
-10
-13
-16
-14
-16
-15
2
-15
13
-17
8
-18
18
-18
11
-19
20
-18
1
-17
-19
-15
-8
-13
-15
-11
6
-10
18
-10
24
-11
11
-13
26
-16
9
-18
-11
-20
-19
-21
-18
-21
-3
-20
3
-18
0
-17
13
-16
26
-15
26
-15
8
-16
-8
-17
-10
-18
-12
-18
-18
-18
0
-17
13
-15
33
-14
22
-12
20
-11
17
-10
6
-9
-5
-9
-2
-9
4
-10
3
-10
5
-10
23
-10
30
-11
14
-11
19
-11
16
-11
-14
-10
-1
-9
14
-7
-1
-5
2
-2
32
0
46
1
38
2
26
1
19
0
1
-2
-1
-5
-4
-8
2
-11
0
-14
22
-16
17
-18
15
-19
-3
-20
9
-19
-17
-18
-28
-16
-14
-14
7
-12
19
-11
39
-10
29
-10
22
-11
-2
-13
-8
-15
-24
-18
-23
-20
-16
-21
2
-22
3
-21
21
-20
20
-19
10
-18
1
-17
-8
-17
-19
-18
-28
-19
-19
-20
14
-20
10
-20
19
-20
14
-19
6
-17
5
-16
7
-16
-10
-17
-23
-18
-30
-20
-22
-22
6
-24
16
-25
8
-25
5
-23
8
-21
-5
-19
-14
-16
-6
-14
-12
-14
-8
-15
7
-17
10
-19
11
-22
10
-24
-6
-25
-22
-25
-22
-23
-16
-19
-5
-13
10
-5
42
5
67
18
69
33
71
50
84
69
89
89
113
108
145
125
164
137
184
143
175
143
155
135
142
120
125
100
86
77
60
52
23
29
3
8
-6
-9
-12
-21
-7
-29
-2
-32
2
-32
5
-29
-4
-24
-28
-19
-13
-14
-4
-10
10
-7
18
-5
22
-5
17
-7
14
-10
10
-13
0
-16
-21
-18
-14
-19
-10
-18
-2
-16
7
-14
39
-12
28
-10
5
-9
9
-10
-7
-11
-21
-13
-18
-15
-17
-17
11
-17
-2
-16
30
-14
31
-11
27
-8
17
-5
2
-2
-11
-1
-8
0
9
-1
16
-2
12
-4
31
-5
33
-6
23
-6
10
-6
3
-6
-13
-6
-6
-6
-3
-6
13
-6
16
-6
35
-6
21
-6
18
-5
19
-4
21
-3
-10
-1
-13
0
9
2
13
3
33
3
43
4
34
4
28
4
13
5
13
5
5
5
14
6
6
6
6
7
28
7
49
8
50
9
48
11
25
12
17
14
7
16
23
19
19
21
33
23
45
24
67
25
65
26
55
26
43
26
31
27
10
27
22
28
46
30
71
33
60
36
70
39
65
43
51
46
64
49
72
50
56
52
43
52
56
52
67
52
81
52
90
52
81
52
65
53
74
55
66
56
55
57
49
57
59
57
79
56
86
55
87
53
78
52
56
50
56
48
61
46
44
44
38
42
40
41
54
39
70
37
80
36
65
34
50
32
39
29
24
27
13
23
12
20
13
17
25
13
47
11
50
9
29
7
13
6
28
6
13
6
-7
6
-1
6
15
5
26
3
23
1
36
-1
28
-4
9
-6
7
-9
-17
-11
-24
-12
-19
-14
-1
-15
3
-15
17
-15
20
-14
13
-13
11
-13
-2
-12
-16
-11
-10
-12
-21
-12
-8
-13
1
-14
26
-16
14
-16
15
-17
-2
-16
5
-15
-27
-14
-29
-12
-5
-11
4
-9
6
-8
27
-8
26
-8
14
-9
16
-10
-12
-11
-30
-12
-15
-13
-16
-14
0
-14
6
-14
29
-13
18
-12
18
-11
9
-11
-6
-10
-23
-10
-20
-11
-18
-12
-3
-13
21
-13
39
-14
13
-13
12
-12
-10
-10
4
-9
-3
-7
-17
-6
-5
-5
6
-5
7
-6
17
-8
28
-9
18
-11
-3
-12
-4
-12
-21
-12
-22
-11
-1
-10
19
-8
8
-7
27
-7
18
-7
16
-7
17
-8
2
-9
-26
-11
-26
-12
-18
-12
-1
-12
9
-12
29
-11
27
-10
18
-8
12
-7
5
-6
-14
-5
-15
-5
-12
-5
7
-5
16
-5
22
-6
25
-6
20
-6
7
-6
3
-6
-13
-6
-21
-7
-21
-8
6
-9
8
-11
17
-12
24
-14
22
-15
-7
-15
-8
-15
-24
-14
-21
-13
-9
-12
-5
-12
9
-11
28
-11
28
-11
2
-12
-3
-12
-5
-12
-10
-12
-10
-11
-11
-11
2
-10
21
-9
15
-8
11
-8
16
-8
4
-9
-10
-10
-14
-11
-21
-12
-9
-13
1
-13
12
-14
20
-15
9
-15
14
-16
-11
-17
-18
-18
-16
-19
-28
-19
-28
-19
-11
-19
12
-17
24
-15
23
-13
16
-11
0
-9
-8
-7
-20
-7
-26
-7
-6
-8
7
-10
4
-12
21
-14
32
-15
3
-16
-13
-17
-20
-17
-22
-17
-19
-16
-19
-16
-3
-15
18
-15
18
-15
17
-15
7
-14
-2
-14
-22
-14
-26
-14
-27
-15
-18
-16
6
-17
25
-18
16
-18
14
-18
3
-17
-18
-16
-22
-14
-11
-13
-21
-12
-17
-11
-5
-11
18
-11
24
-12
11
-12
5
-12
7
-12
-12
-11
-17
-11
-22
-11
-13
-12
2
-13
23
-14
17
-16
1
-17
-2
-17
-1
-16
-23
-14
-20
-12
-10
-9
12
-7
8
-5
19
-5
19
-6
11
-7
6
-9
11
-10
-17
-10
-26
-9
-11
-7
-3
-4
8
0
32
3
34
6
32
7
22
6
4
4
-9
2
-10
-1
-2
-3
13
-4
6
-5
26
-4
25
-3
31
-1
11
0
-6
1
-19
1
-10
1
-2
0
7
-1
15
-2
28
-3
25
-4
26
-5
6
-7
-4
-8
-24
-10
-24
-11
-22
-13
3
-13
-9
-13
25
-13
25
-11
10
-10
-11
-10
-7
-9
-23
-10
-19
-12
-7
-14
-6
-16
-3
-18
7
-19
13
-20
9
-20
-5
-20
-16
-20
-25
-20
-14
-20
-36
-21
-15
-21
0
-21
13
-21
17
-20
-3
-19
-9
-17
-8
-16
-22
-15
-32
-14
-18
-14
-3
-14
0
-15
17
-15
17
-15
9
-15
-6
-14
-26
-14
-21
-14
-27
-16
-21
-18
-19
-20
-6
-22
10
-23
-4
-22
0
-19
2
-13
9
-5
-10
5
-4
17
31
30
61
44
85
59
102
76
118
94
134
113
165
131
157
147
157
159
149
164
163
161
159
150
161
130
135
104
102
75
50
45
14
18
-27
-4
-33
-19
-37
-28
-29
-30
-13
-28
10
-23
6
-17
3
-12
11
-8
6
-5
-20
-4
-7
-3
-5
-3
-3
-4
15
-4
31
-4
15
-5
16
-6
10
-7
-11
-8
-23
-9
-18
-9
-6
-9
-7
-8
8
-6
23
-5
19
-4
20
-3
20
-3
7
-3
-20
-3
-21
-4
-14
-5
6
-5
1
-5
31
-4
24
-3
23
-2
4
-1
10
0
-17
1
-9
2
-5
3
9
3
17
4
24
5
33
6
30
7
18
9
10
10
-3
10
5
11
11
10
13
9
9
8
39
6
30
5
17
4
10
3
10
3
-12
4
2
6
3
7
11
9
30
11
44
12
41
13
41
14
27
15
18
15
-17
16
1
17
18
18
36
19
33
21
56
22
56
24
39
26
38
28
43
29
10
30
19
31
34
32
32
32
39
33
71
34
58
36
62
38
40
41
57
45
41
49
40
52
50
56
71
58
74
59
81
60
79
60
71
59
61
58
62
58
58
58
44
59
46
61
62
63
84
64
88
65
87
65
89
64
60
62
54
60
34
57
33
55
49
52
64
50
60
48
67
46
69
44
40
42
47
41
43
39
22
37
25
35
28
33
37
31
40
30
51
28
50
27
37
25
27
23
8
20
-1
17
-4
13
-4
9
8
6
20
2
18
-1
17
-3
11
-5
3
-6
-23
-6
-19
-6
-17
-7
-20
-7
-9
-8
9
-10
11
-12
1
-14
-7
-15
-16
-17
-30
-18
-29
-18
-29
-18
-22
-17
-5
-16
14
-16
13
-16
0
-16
-15
-17
-25
-18
-32
-20
-33
-21
-30
-22
-27
-23
-18
-23
7
-24
-3
-24
-7
-24
-8
-24
-29
-25
-41
-25
-30
-25
-34
-25
-30
-24
-18
-23
9
-22
5
-20
-2
-19
-2
-18
-12
-17
-42
-16
-28
-17
-26
-17
-18
-18
-19
-19
-2
-19
2
-20
4
-20
-18
-20
-25
-20
-39
-19
-27
-18
-21
-17
-13
-16
-12
-16
26
-15
5
-15
-1
-15
-3
-15
-14
-15
-42
-15
-24
-15
-23
-15
-28
-15
-30
-15
15
-15
3
-14
-1
-14
-11
-14
-9
-13
-31
-13
-31
-13
-21
-13
-5
-14
-5
-15
7
-17
5
-19
-10
-20
-25
-22
-46
-23
-35
-23
-19
-22
-17
-21
-17
-18
-13
-16
10
-14
9
-12
10
-11
-13
-11
-13
-12
-34
-14
-41
-16
-42
-18
-21
-20
2
-22
4
-22
-3
-22
-9
-22
-19
-21
-28
-20
-34
-19
-35
-19
-33
-18
-2
-19
7
-19
4
-19
-6
-20
-20
-20
-21
-21
-32
-21
-45
-21
-28
-22
-20
-22
-10
-22
-12
-22
-11
-22
1
-21
-4
-20
-10
-20
-21
-19
-47
-18
-48
-18
-30
-17
-12
-17
4
-17
10
-17
-4
-17
1
-17
-20
-17
-27
-17
-39
-17
-44
-17
-28
-17
-10
-17
8
-18
-2
-18
-1
-18
-11
-19
-22
-19
-43
-19
-38
-20
-43
-20
-24
-21
-3
-21
-5
-21
-5
-21
6
-20
-10
-20
-19
-19
-35
-18
-40
-18
-30
-18
-20
-19
-4
-19
7
-20
-7
-21
-14
-22
-16
-23
-29
-23
-42
-23
-36
-22
-41
-21
-20
-20
-7
-19
9
-18
9
-17
8
-16
-11
-15
-20
-14
-38
-13
-35
-12
-43
-12
-18
-11
-14
-11
6
-12
8
-13
4
-14
-8
-15